sat1Name,LLO-20
sat1Smaj,3416.853
sat1Ecc,0.36141726392417284
sat1Inc,90.0240209868622
sat1RAAN,238.5265355386046
sat1ArgPer,293.02982060218926
sat1TrAnom,0
Time[EpSec],xF[km],yF[km],zF[km],xI[km],yI[km],zI[km]
0.0,969.8177002686798,-1165.774823666341,-1568.8528984101606,-444.9483845100403,-728.4582247161866,-2008.0453874511718
10.0,974.0152603821439,-1178.0267757916358,-1557.082247625997,-453.3442030754089,-742.1676745758057,-2001.1556946334838
20.0,978.1662013235981,-1190.2233533095887,-1545.2381094521056,-461.71862590789794,-755.8420975952148,-1994.1715565795898
30.0,982.2703336913556,-1202.363982433006,-1533.321048488625,-470.07125945281985,-769.4808511352539,-1987.093310142517
40.0,986.3274727350131,-1214.4480949991107,-1521.3316363616739,-478.40171237564084,-783.0832962188721,-1979.9213013381957
50.0,990.3374383626157,-1226.4751285633674,-1509.2704516574042,-486.7095956382751,-796.6487976074219,-1972.655885307312
60.0,994.3000552240011,-1238.4445265532433,-1497.1380797668894,-494.9945225906372,-810.1767239990235,-1965.2974262313842
70.0,998.2151526743589,-1250.3557383144716,-1484.9351127885914,-503.2561090316772,-823.6664480590821,-1957.846297241211
80.0,1002.0825648622675,-1262.2082192600935,-1472.6621493877503,-511.49397328186035,-837.1173466186524,-1950.3028803482055
90.0,1005.9021307345515,-1274.001430966205,-1460.3197946748608,-519.707736278534,-850.5288007659913,-1942.6675663528442
100.0,1009.6736940543376,-1285.734841252933,-1447.9086600793726,-527.8970216217041,-863.9001959533691,-1934.9407547531127
110.0,1013.3971034684045,-1297.4079243206222,-1435.429363213265,-536.0614556655884,-877.230922164917,-1927.1228536682129
120.0,1017.072212445152,-1309.020160792066,-1422.8825277580156,-544.2006675872802,-890.5203739318848,-1919.214279724121
130.0,1020.6988794143251,-1320.5710378629287,-1410.2687833069385,-552.314289440155,-903.7679505767823,-1911.2154579849243
140.0,1024.2769676722849,-1332.0600493485417,-1397.5887652292868,-560.4019562454224,-916.9730562133789,-1903.1268218078612
150.0,1027.8063454862995,-1343.4866958003977,-1384.8431145500413,-568.4633060417175,-930.1350999298096,-1894.948812789917
160.0,1031.2868860516203,-1354.8504845779942,-1372.0324777980363,-576.49797996521,-943.2534958496094,-1886.6818806304932
170.0,1034.7184675432893,-1366.1509299218715,-1359.1575068809727,-584.5056222915649,-956.3276632537842,-1878.3264830474855
180.0,1038.1009731376707,-1377.387553087434,-1346.2188589052885,-592.4858805351257,-969.3570267333985,-1869.883085647583
190.0,1041.4342909568365,-1388.559882333882,-1333.2171960826963,-600.4384054756165,-982.3410161743165,-1861.352161819458
200.0,1044.7183141522662,-1399.66745307688,-1320.1531855412072,-608.3628512420654,-995.2790669708252,-1852.7341926193237
210.0,1047.9529408802816,-1410.7098079300954,-1307.0274992079171,-616.2588753623962,-1008.1706200714111,-1844.0296666641236
220.0,1051.1380743049754,-1421.6864967683607,-1293.8408136530277,-624.1261388206482,-1021.0151220703125,-1835.239080001831
230.0,1054.2736226344257,-1432.5970768219508,-1280.5938099233085,-631.9643061218262,-1033.8120253448487,-1826.3629359893798
240.0,1057.359499060212,-1443.4411127035473,-1267.2871734224907,-639.773045337677,-1046.5607880706787,-1817.4017451705934
250.0,1060.3956218129847,-1454.2181764881357,-1253.9215937519452,-647.5520281639099,-1059.2608743591309,-1808.3560251617432
260.0,1063.3819141440445,-1464.9278477901994,-1240.497764547565,-655.3009299812317,-1071.9117543487548,-1799.2263005142213
270.0,1066.3183043124475,-1475.569713772445,-1227.0163833348317,-663.0194298820495,-1084.5129042510987,-1790.0131025772096
280.0,1069.2047256028725,-1486.1433692460196,-1213.478151374903,-670.7072107467651,-1097.0638064727784,-1780.7169693832398
290.0,1072.0411163112815,-1496.648416703389,-1199.8837735207476,-678.3639592781067,-1109.5639496765136,-1771.3384455184937
300.0,1074.8274196838709,-1507.0844663319356,-1186.2339580693372,-685.9893660469055,-1122.0128287963867,-1761.878081970215
310.0,1077.5635840117936,-1517.451136117849,-1172.52941656519,-693.5831255378723,-1134.409945236206,-1752.3364359970092
320.0,1080.2495625401407,-1527.748051844982,-1158.770863698298,-701.1449361915588,-1146.7548068389892,-1742.714071006775
330.0,1082.885313462593,-1537.974847130689,-1144.9590171331326,-708.6745004463196,-1159.0469279632568,-1733.0115564041137
340.0,1085.470799947705,-1548.1311634988208,-1131.0945973412713,-716.1715247840881,-1171.2858296051024,-1723.2294674606323
350.0,1088.0059900802732,-1558.2166503681963,-1117.1783274669388,-723.6357197532653,-1183.4710393981934,-1713.368385169983
360.0,1090.4908568588933,-1568.2309651025514,-1103.210933142982,-731.0668000183106,-1195.6020917053222,-1703.4288960876465
370.0,1092.9253781814514,-1578.173773035842,-1089.1931423740614,-738.4644843902588,-1207.6785276641845,-1693.411592224121
380.0,1095.3095368254133,-1588.0447474969094,-1075.125685371708,-745.8284958572387,-1219.699895248413,-1683.317070892334
390.0,1097.6433203856168,-1597.8435698083451,-1061.0092943856027,-753.1585616188049,-1231.665749282837,-1673.1459345321655
400.0,1099.9267213362627,-1607.5699293529474,-1046.8447035518652,-760.454413116455,-1243.5756515808105,-1662.8987906036377
410.0,1102.1597369150732,-1617.2235235323853,-1032.6326487677554,-767.7157860565186,-1255.4291708831788,-1652.5762514266967
420.0,1104.342369146887,-1626.8040578103814,-1018.3738675164202,-774.9424204368592,-1267.225882965088,-1642.178934036255
430.0,1106.474624803623,-1636.3112457218929,-1004.0690987135085,-782.1340605812072,-1278.965370666504,-1631.707460029602
440.0,1108.5565153662042,-1645.7448088608369,-989.719082574187,-789.2904551506042,-1290.6472239074708,-1621.1624554290772
450.0,1110.5880570043362,-1655.1044768998515,-975.3245604412318,-796.411357170105,-1302.2710397491455,-1610.5445505218506
460.0,1112.5692705551573,-1664.3899875887269,-960.886274660328,-803.4965240402222,-1313.8364224243164,-1599.854379737854
470.0,1114.5001814471293,-1673.6010867476277,-946.4049684099597,-810.5457175788879,-1325.3429833374023,-1589.0925814666748
480.0,1116.3808197168232,-1682.737528259019,-931.8813855727653,-817.5587040023804,-1336.7903411254883,-1578.2597979431152
490.0,1118.2112199213618,-1691.7990740647945,-917.3162705923155,-824.5352539710999,-1348.1781216430663,-1567.3566750869752
500.0,1119.9914211664466,-1700.7854941675728,-902.710368290291,-831.4751425819397,-1359.5059580535888,-1556.3838623428344
510.0,1121.7214670004114,-1709.6965665994287,-888.0644237692367,-838.3781493988037,-1370.7734907684326,-1545.342012550354
520.0,1123.4014054164556,-1718.5320774109566,-873.3791822485028,-845.2440584411621,-1381.9803675079345,-1534.231781791687
530.0,1125.0312887940152,-1727.2918206596398,-858.6553889297874,-852.0726582069396,-1393.1262433013917,-1523.053829246521
540.0,1126.611173859825,-1735.9755983813332,-843.8937888361108,-858.8637416763306,-1404.2107805023193,-1511.8088170242308
550.0,1128.1411216615559,-1744.5832205806355,-829.0951267143257,-865.6171063117981,-1415.233648803711,-1500.4974100646973
560.0,1129.6211974791465,-1753.1145051871947,-814.2601468700708,-872.3325540771484,-1426.1945252075195,-1489.1202759475707
570.0,1131.0514708386288,-1761.569278041058,-799.3895930251031,-879.0098914146423,-1437.0930940856933,-1477.6780847625732
580.0,1132.4320154342336,-1769.947372869623,-784.4842082085802,-885.6489292678833,-1447.9290471496581,-1466.1715089797974
590.0,1133.7629090743771,-1778.2486312340814,-769.5447346150386,-892.2494830703736,-1458.7020834350585,-1454.6012232894898
600.0,1135.044233659312,-1786.4729025130466,-754.5719134587824,-898.811372745514,-1469.4119093322754,-1442.9679044570923
610.0,1136.2760751065675,-1794.6200438499338,-739.5664848786711,-905.3344226989747,-1480.0582385406494,-1431.272231201172
620.0,1137.4585233008845,-1802.68992013227,-724.5291877698796,-911.8184618301392,-1490.6407920837403,-1419.5148840179443
630.0,1138.5916720852033,-1810.6824039383325,-709.4607596929543,-918.2633234977723,-1501.1592983093262,-1407.6965450820924
640.0,1139.6756191888633,-1818.597375509805,-694.3619367383558,-924.6688455314636,-1511.6134928741455,-1395.8178980941773
650.0,1140.7104661178596,-1826.4347226723517,-679.2334534005789,-931.0348702239991,-1522.0031186676026,-1383.879628112793
660.0,1141.6963182151524,-1834.1943408404945,-664.0760424661618,-937.3612443084717,-1532.3279259033204,-1371.8824214706422
670.0,1142.6332845053857,-1841.8761329165097,-648.8904348839428,-943.6478189582824,-1542.5876719970704,-1359.8269655838012
680.0,1143.5214776937241,-1849.4800092670405,-633.6773596694413,-949.8944497566223,-1552.7821215972901,-1347.7139488601686
690.0,1144.3610141221745,-1857.005887684507,-618.43754378352,-956.1009967079162,-1562.9110465698243,-1335.5440605621338
700.0,1145.1520136699737,-1864.4536932983524,-603.171712001394,-962.2673241958618,-1572.9742259368898,-1323.317990638733
710.0,1145.8945997325152,-1871.8233585405706,-587.8805868408116,-968.3933009872436,-1582.9714458618164,-1311.0364296417235
720.0,1146.5888991721663,-1879.114823095176,-572.5648884217378,-974.4788001976013,-1592.9024996490477,-1298.7000685729981
730.0,1147.2350422156146,-1886.3280338090453,-557.2253343674487,-980.5236992835999,-1602.7671876525878,-1286.309598739624
740.0,1147.8331624793166,-1893.462944675144,-541.862639717124,-986.5278800163269,-1612.5653173217775,-1273.8657116775512
750.0,1148.3833968037682,-1900.519516724377,-526.4775168233881,-992.4912284660339,-1622.2967030639647,-1261.3690989837646
760.0,1148.8858853146344,-1907.4977179999664,-511.07067522523107,-998.413634967804,-1631.9611663208009,-1248.8204522094727
770.0,1149.3407712837839,-1914.3975234715422,-495.6428215890125,-1004.2949941101074,-1641.558535446167,-1236.2204627456665
780.0,1149.7482011025697,-1921.2189149759295,-480.1946595751257,-1010.1352047042847,-1651.0886457061767,-1223.5698216781616
790.0,1150.108324197609,-1927.9618811399835,-464.7268898099164,-1015.9341697616577,-1660.551339187622,-1210.8692197189332
800.0,1150.4212930406836,-1934.6264173473967,-449.2402097007994,-1021.6917964668274,-1669.9464648590088,-1198.1193470306396
810.0,1150.6872630262972,-1941.2125256180595,-433.7353134317632,-1027.4079961395264,-1679.2738784179687,-1185.320893157959
820.0,1150.9063924062839,-1947.7202145560861,-418.2128918483221,-1033.082684223175,-1688.5334422607423,-1172.4745468902588
830.0,1151.0788423000895,-1954.1494993141584,-402.67363235493224,-1038.7157802505494,-1697.7250255126953,-1159.5809961624145
840.0,1151.2047765657164,-1960.5004014613733,-387.1182188752483,-1044.3072078056337,-1706.8485038757324,-1146.640927947998
850.0,1151.284361801387,-1966.7729489589221,-371.54733171535656,-1049.8568944969177,-1715.9037596740723,-1133.6550281295777
860.0,1151.3177672389809,-1972.9671760588515,-355.96164756725113,-1055.3647719345092,-1724.8906817169188,-1120.6239814453124
870.0,1151.305164696791,-1979.0831232148837,-340.3618393465411,-1060.8307756767274,-1733.8091652832031,-1107.5484713058472
880.0,1151.246728580328,-1985.12083707463,-324.7485761855546,-1066.2548452224733,-1742.659112121582,-1094.4291797866822
890.0,1151.142635709722,-1991.0803703073036,-309.12252333495826,-1071.6369239616395,-1751.440430267334,-1081.2667874450683
900.0,1150.993065366511,-1996.9617815959891,-293.4843420917677,-1076.9769591445922,-1760.1530341033936,-1068.0619732666016
910.0,1150.7981992030168,-2002.7651355313023,-277.83468976346285,-1082.2749018363952,-1768.79684425354,-1054.815414581299
920.0,1150.5582211583371,-2008.4905025414407,-262.17421956457383,-1087.530706905365,-1777.3717875213622,-1041.5277869262695
930.0,1150.2733174190373,-2014.137958800009,-246.50358058481675,-1092.7443329620362,-1785.8777968292236,-1028.1997639846802
940.0,1149.9436764026411,-2019.7075861721974,-230.82341771078214,-1097.9157423362733,-1794.3148112030028,-1014.8320174942016
950.0,1149.569488635956,-2025.1994721109609,-215.13437158872782,-1103.0449010353088,-1802.6827756500245,-1001.4252171554565
960.0,1149.150946710053,-2030.6137095654174,-199.43707855698875,-1108.1317787055968,-1810.9816410980225,-987.980030532837
970.0,1148.688245271464,-2035.9503969406658,-183.7321705903617,-1113.1763485946656,-1819.2113643951416,-974.4971229934692
980.0,1148.1815809299587,-2041.209637992509,-168.02027524988108,-1118.1785875167848,-1827.371908203125,-960.9771576080323
990.0,1147.631152194385,-2046.3915417221417,-152.30201565538334,-1123.1384757995606,-1835.4632409057617,-947.4207950820922
1000.0,1147.0371594466903,-2051.49622234491,-136.57801040841568,-1128.0559972610474,-1843.4853366088867,-933.8286936721802
1010.0,1146.3998048609612,-2056.523799168241,-120.84887357635866,-1132.9311391601564,-1851.4381750183106,-920.2015091171264
1020.0,1145.7192923640273,-2061.474396527387,-105.1152146131125,-1137.763892162323,-1859.3217414093017,-906.5398945388794
1030.0,1144.99582758768,-2066.3481437021487,-89.37763836101757,-1142.554250289917,-1867.136026550293,-892.8445004119873
1040.0,1144.2296177806202,-2071.145174820385,-73.63674498775893,-1147.302210887909,-1874.881026611328,-879.1159744567871
1050.0,1143.4208717947186,-2075.865628786005,-57.89312994263321,-1152.00777457428,-1882.5567431335448,-865.3549615783692
1060.0,1142.569800024348,-2080.5096492167527,-42.147383950777936,-1156.6709452209473,-1890.1631829528808,-851.5621038284302
1070.0,1141.6766143033713,-2085.077384304635,-26.400092962588882,-1161.2917298774719,-1897.7003580780029,-837.7380402984619
1080.0,1140.7415279623287,-2089.5689868088834,-10.6518381154401,-1165.8701387557983,-1905.168285736084,-823.8834070968628
1090.0,1139.7647556579964,-2093.9846139153096,5.096804287141189,-1170.4061851806641,-1912.5669881896972,-809.9988372497559
1100.0,1138.7465133770986,-2098.324427173886,20.845262784111664,-1174.899885547638,-1919.896492706299,-796.0849606781006
1110.0,1137.6870184118748,-2102.5885924215877,36.59297082171694,-1179.3512592697143,-1927.15683152771,-782.1424041137695
1120.0,1136.5864892617435,-2106.777279694625,52.33936674165598,-1183.7603287506104,-1934.3480417480469,-768.1717910614013
1130.0,1135.4451456038626,-2110.8906631510895,68.08389381899615,-1188.1271193351745,-1941.4701652679444,-754.1737417373657
1140.0,1134.2632082337766,-2114.9289209732406,83.82600027566717,-1192.4516592636107,-1948.523248703003,-740.1488730163575
1150.0,1133.0408990494363,-2118.8922353302055,99.56513930926378,-1196.7339796409608,-1955.5073433685302,-726.0977983932495
1160.0,1131.7784409558326,-2122.7807922335537,115.30076908286638,-1200.9741143722533,-1962.4225051269532,-712.0211279296875
1170.0,1130.47605785379,-2126.5947815045356,131.03235278089358,-1205.1721001358032,-1969.2687943878175,-697.9194681930542
1180.0,1129.1339745924106,-2130.334396699975,146.75935860037234,-1209.3279763450623,-1976.0462760314942,-683.7934222335815
1190.0,1127.7524168938905,-2133.999834986849,162.4812597524709,-1213.4417850875855,-1982.7550192871095,-669.6435895309448
1200.0,1126.3316113258763,-2137.5912971024472,178.19753447851596,-1217.5135710983277,-1989.3950977020263,-655.4705659637451
1210.0,1124.8717852602722,-2141.1089872565262,193.9076660691402,-1221.5433817062378,-1995.9665890655517,-641.2749437561035
1220.0,1123.3731668232085,-2144.5531130685454,209.6111428755509,-1225.5312667999267,-2002.4695753479004,-627.0573114395141
1230.0,1121.835984866201,-2147.923885483071,225.30745828645385,-1229.4772787780762,-2008.9041426239014,-612.8182538452148
1240.0,1120.26046888217,-2151.2215186806416,240.99611076286376,-1233.3814725112916,-2015.2703809814452,-598.5583520278931
1250.0,1118.6468490110449,-2154.446230023445,256.6766038255836,-1237.2439053001403,-2021.5683844909668,-584.278183265686
1260.0,1116.9953559733672,-2157.5982399621334,272.348446061575,-1241.0646368255616,-2027.7982511138916,-569.9783210144043
1270.0,1115.3062210208275,-2160.677771964866,288.01115111530106,-1244.8437291145324,-2033.9600826263427,-555.6593348846435
1280.0,1113.5796759140142,-2163.685052451516,303.6642377057292,-1248.5812465019226,-2040.0539845733642,-541.3217906036377
1290.0,1111.8159528700362,-2166.6203107033357,319.3072295972819,-1252.2772555732727,-2046.080066177368,-526.9662500076294
1300.0,1110.0152845341674,-2169.4837788090663,334.9396556171571,-1255.9318251419068,-2052.0384402923582,-512.5932710037231
1310.0,1108.1779039339979,-2172.275691568826,350.56104966013885,-1259.545026184082,-2057.929223327637,-498.20340753173826
1320.0,1106.3040444257006,-2174.996286439444,366.17095063934977,-1263.1169318275452,-2063.75253515625,-483.7972095794678
1330.0,1104.3939396814446,-2177.6458034561374,381.76890252261654,-1266.6476172866821,-2069.5084990844725,-469.37522312927246
1340.0,1102.4478236712125,-2180.2244851812943,397.3544543142942,-1270.137159828186,-2075.1972418060304,-454.93799015808105
1350.0,1100.4659305332464,-2182.7325765819974,412.927160005974,-1273.5856387405395,-2080.818893218994,-440.48604861450195
1360.0,1098.4484946587309,-2185.1703250232304,428.48657863839196,-1276.9931352767944,-2086.373586517334,-426.0199323883057
1370.0,1096.3957505861856,-2187.5379801633617,444.03227422277166,-1280.3597326278687,-2091.8614580230715,-411.5401713256836
1380.0,1094.3079329671405,-2189.8357938871964,459.5638157647241,-1283.68551587677,-2097.282647140503,-397.04729118347166
1390.0,1092.185276553957,-2192.0640202539903,475.080777246151,-1286.9705719680785,-2102.637296310425,-382.5418136291504
1400.0,1090.0280161542394,-2194.22291540932,490.5827375820914,-1290.2149896507262,-2107.925550918579,-368.0242562484741
1410.0,1087.8363866163738,-2196.3127375482836,506.06928065672963,-1293.4188594551085,-2113.1475592803954,-353.4951324996948
1420.0,1085.6106227685545,-2198.3337468228888,521.5399952548244,-1296.5822736511232,-2118.303472518921,-338.9549517364502
1430.0,1083.3509594232846,-2200.2862053037866,536.9944750890303,-1299.7053262062072,-2123.393444564819,-324.4042191772461
1440.0,1081.057631283181,-2202.1703768733382,552.4323187410058,-1302.788112751007,-2128.417632003784,-309.84343590545654
1450.0,1078.7308730058435,-2203.986527230135,567.8531296697784,-1305.8307305412293,-2133.3761941375733,-295.2730988845825
1460.0,1076.3709190781428,-2205.7349237573826,583.2565161693406,-1308.8332784194947,-2138.2692928009033,-280.69370092773437
1470.0,1073.9780038519016,-2207.4158355066247,598.6420913865364,-1311.7958567771911,-2143.0970923919676,-266.1057306900024
1480.0,1071.5523614949482,-2209.02953313254,614.009473264363,-1314.7185675239564,-2147.859759780884,-251.5096726913452
1490.0,1069.094225946782,-2210.5762888029376,629.3582845130751,-1317.601514038086,-2152.5574642181396,-236.90600730895997
1500.0,1066.6038309217026,-2212.0563761847375,644.6881526240463,-1320.4448011550903,-2157.190377334595,-222.2952107620239
1510.0,1064.08140987367,-2213.4700703644585,659.9987098253036,-1323.248535106659,-2161.7586730651856,-207.67775512695312
1520.0,1061.5271959358806,-2214.8176477663114,675.2895930472929,-1326.0128234939575,-2166.262527542114,-193.05410832977296
1530.0,1058.9414219351563,-2216.0993861322095,690.560443915266,-1328.7377752609252,-2170.7021190948485,-178.42473415374755
1540.0,1056.3243203743727,-2217.315564468565,705.8109087238998,-1331.4235006523131,-2175.0776282043457,-163.79009224700928
1550.0,1053.6761233704403,-2218.466462968032,721.0406383960108,-1334.0701111869812,-2179.3892373962403,-149.1506381225586
1560.0,1050.9970626504253,-2219.552362955564,736.2492884698818,-1336.677719608307,-2183.637131210327,-134.50682315826415
1570.0,1048.2873695165842,-2220.5735468540965,751.436519054599,-1339.2464398727418,-2187.8214961395265,-119.85909461975098
1580.0,1045.547274861487,-2221.5302981239897,766.6019948442629,-1341.776387096405,-2191.942520614624,-105.20789563751221
1590.0,1042.777009098488,-2222.4229012170485,781.7453850276727,-1344.26767754364,-2196.000394897461,-90.55366526031494
1600.0,1039.976802159371,-2223.251641497699,796.866363324845,-1346.7204285697937,-2199.9953110504152,-75.89683840179444
