sat1Name,LLO-31
sat1Smaj,3416.853
sat1Ecc,0.3586223247815764
sat1Inc,90.81772553718277
sat1RAAN,238.32929609172518
sat1ArgPer,292.2679026239335
sat1TrAnom,0
Time[EpSec],xF[km],yF[km],zF[km],xI[km],yI[km],zI[km]
0.0,988.6246479063975,-1138.4601844485612,-1590.3371678230449,-411.37753379440306,-721.9665470275879,-2027.849950820923
10.0,992.7850665253452,-1150.8664574158247,-1578.799237647117,-419.91905584716795,-735.6314186401368,-2021.1969786148072
20.0,996.8985817032243,-1163.219342563822,-1567.187764966689,-428.44101762771606,-749.2620237579346,-2014.4498568954468
30.0,1000.9650081908018,-1175.5182660660173,-1555.5032961494253,-436.9430236740112,-762.8577300872803,-2007.6089070129394
40.0,1004.9841652949592,-1187.7626594210774,-1543.746384493793,-445.4246805419922,-776.4179088134765,-2000.6744592971802
50.0,1008.955876999112,-1199.9519595893344,-1531.9175901311562,-453.88559685897826,-789.9419347991943,-1993.6468530349732
60.0,1012.8799718715151,-1212.0856090484926,-1520.0174799448982,-462.3253834228516,-803.4291865692138,-1986.526436378479
70.0,1016.7562832222894,-1224.1630559671928,-1508.0466273937525,-470.74365327072144,-816.879046585083,-1979.3135662689208
80.0,1020.5846490487792,-1236.1837542578799,-1496.0056124341102,-479.1400217437744,-830.290901260376,-1972.0086083602905
90.0,1024.3649120815246,-1248.14716367584,-1483.895021408413,-487.51410656356813,-843.6641410827636,-1964.6119369506837
100.0,1028.096919850323,-1260.0527499783939,-1471.7154468760232,-495.8655279197693,-856.9981608123779,-1957.1239348831177
110.0,1031.7805246507935,-1271.8999849502072,-1459.4674875287958,-504.19390851974487,-870.2923594970703,-1949.5449934616088
120.0,1035.4155835806375,-1283.6883465288079,-1447.1517480663674,-512.4988736763,-883.5461406097412,-1941.8755123748779
130.0,1039.0019586032502,-1295.4173189164626,-1434.768839032164,-520.7800513687134,-896.7589122161866,-1934.1158995895387
140.0,1042.5395165244067,-1307.0863926364002,-1422.3193767171017,-529.037072303772,-909.930087020874,-1926.2665712661744
150.0,1046.0281290186463,-1318.6950646455912,-1409.8039830336413,-537.2695700035096,-923.0590824890137,-1918.327951675415
160.0,1049.4676726439618,-1330.242838410044,-1397.2232853271003,-545.4771808586121,-936.145320968628,-1910.300473045349
170.0,1052.8580288588626,-1341.7292239762967,-1384.5779163370762,-553.6595441856384,-949.188229751587,-1902.1845755462646
180.0,1056.1990840305677,-1353.153738077369,-1371.8685139541783,-561.8163023109436,-962.1872412261963,-1893.9807070922852
190.0,1059.4907294630389,-1364.5159041968782,-1359.0957211547218,-569.947100616455,-975.1417929534912,-1885.6893233032226
200.0,1062.7328613941595,-1375.8152526418594,-1346.2601858517178,-578.051587600708,-988.0513277587891,-1877.3108873825074
210.0,1065.9253809675868,-1387.0513206214835,-1333.3625607371005,-586.1294149627686,-1000.9152938079834,-1868.8458699798584
220.0,1069.0681943135576,-1398.223652313848,-1320.403503131486,-594.1802376213074,-1013.7331447601318,-1860.294749092102
230.0,1072.161212484262,-1409.3317989307475,-1307.383674891815,-602.2037138061523,-1026.5043397827149,-1851.6580099716186
240.0,1075.204351477907,-1420.3753187952275,-1294.303742209953,-610.199505104065,-1039.2283436889647,-1842.9361449661255
250.0,1078.1975322615458,-1431.3537773888331,-1281.164375505084,-618.1672765045166,-1051.9046270141603,-1834.1296534347534
260.0,1081.1406807288522,-1442.2667474142681,-1267.9662492722264,-626.1066964607239,-1064.5326660766602,-1825.2390416107178
270.0,1084.0337277403773,-1453.1138088684072,-1254.7100419288058,-634.0174369430542,-1077.1119430999756,-1816.2648224868774
280.0,1086.8766090902323,-1463.8945490748738,-1241.3964356693182,-641.8991734848022,-1089.641946258545,-1807.2075156784058
290.0,1089.6692654744975,-1474.6085627290959,-1228.0261163409812,-649.7515852355957,-1102.1221697235108,-1798.0676473083497
300.0,1092.4116425742159,-1485.255451996196,-1214.5997732602239,-657.5743550033569,-1114.5521138458253,-1788.8457498855591
310.0,1095.1036909382622,-1495.8348264848335,-1201.1180990939697,-665.3671693000794,-1126.931285095215,-1779.5423621520997
320.0,1097.7453660356439,-1506.3463033473886,-1187.581789701617,-673.1297183952331,-1139.2591962127685,-1770.1580289764404
330.0,1100.3366282248217,-1516.7895072872864,-1173.991543995842,-680.861696346283,-1151.535366241455,-1760.6933012161255
340.0,1102.8774427427925,-1527.16407062204,-1160.3480637654643,-688.5628010559082,-1163.7593206176757,-1751.1487355651855
350.0,1105.3677796825295,-1537.4696332947417,-1146.6520535646096,-696.2327342948913,-1175.9305912017821,-1741.5248944473267
360.0,1107.8076139993482,-1547.7058429208234,-1132.9042205429496,-703.8712017440796,-1188.048716369629,-1731.8223458709717
370.0,1110.1969254310309,-1557.872354795126,-1119.105274330606,-711.4779130439758,-1200.1132409973145,-1722.0416632995605
380.0,1112.5356985733656,-1567.9688319607228,-1105.2559268057573,-719.0525818138123,-1212.123716644287,-1712.1834254760743
390.0,1114.8239227507406,-1577.994945173804,-1091.3568920640419,-726.5949256896972,-1224.0797014465331,-1702.2482163467407
400.0,1117.0615920726063,-1587.9503729827552,-1077.4088861914313,-734.1046663703919,-1235.980760284424,-1692.2366248855592
410.0,1119.2487053879895,-1597.834801707459,-1063.4126271102448,-741.5815296211242,-1247.8264647979736,-1682.149244934082
420.0,1121.385266232265,-1607.6479254686083,-1049.3688345075204,-749.0252453269959,-1259.6163933868409,-1671.986675125122
430.0,1123.4712828306313,-1617.3894461952016,-1035.2782296094795,-756.435547504425,-1271.3501313018799,-1661.7495186767578
440.0,1125.506768045492,-1627.0590736309819,-1021.1415350820859,-763.8121743354798,-1283.0272706451417,-1651.4383832855224
450.0,1127.4917393795447,-1636.6565253600993,-1006.9594748746348,-771.1548681869507,-1294.647410446167,-1641.0538809890747
460.0,1129.4262189123854,-1646.181526792201,-992.7327740711896,-778.4633756332397,-1306.2101566619874,-1630.5966280059815
470.0,1131.3102332588298,-1655.6338111600016,-978.4621587572829,-785.7374474830627,-1317.7151221923828,-1620.0672445983887
480.0,1133.1438136009663,-1665.0131195558804,-964.1483558590762,-792.9768387908936,-1329.1619269866944,-1609.4663549423217
490.0,1134.9269955381324,-1674.3192008637716,-949.7920930284723,-800.1813088798523,-1340.5501979370117,-1598.7945869598389
500.0,1136.6598191961832,-1683.55181183407,-935.3940984813972,-807.3506213531494,-1351.8795690612792,-1588.0525722198486
510.0,1138.3423290407095,-1692.710716983602,-920.9551008864221,-814.4845441093445,-1363.149681350708,-1577.240945755005
520.0,1139.9745739646135,-1701.795688677709,-906.475829174596,-821.5828493652343,-1374.360182952881,-1566.3603459320068
530.0,1141.5566071477338,-1710.8065070419773,-891.9570124590606,-828.6453136558532,-1385.5107290496826,-1555.4114143142701
540.0,1143.0884861000284,-1719.742959989388,-877.3993798742986,-835.671717842102,-1396.6009819641113,-1544.3947955322265
550.0,1144.5702725535402,-1728.6048431857355,-862.8036604379664,-842.6618471336365,-1407.630611114502,-1533.3111371154785
560.0,1146.002032455456,-1737.391960030872,-848.170582926526,-849.6154910850524,-1418.5992930450439,-1522.1610893707275
570.0,1147.3838359269898,-1746.1041216413412,-833.5008757353619,-856.532443599701,-1429.5067114410401,-1510.9453052368165
580.0,1148.7157571819287,-1754.741146811911,-818.7952667831748,-863.4125029411316,-1440.3525570831298,-1499.6644401626586
590.0,1149.9978745412297,-1763.302862016562,-804.0544833007926,-870.2554717330933,-1451.1365279388428,-1488.3191519165039
600.0,1151.2302703142673,-1771.7891013351411,-789.2792518142445,-877.0611569595337,-1461.8583290405275,-1476.910100517273
610.0,1152.4130308311367,-1780.1997064732348,-774.4702979219378,-883.8293699645997,-1472.517672607422,-1465.4379480438233
620.0,1153.5462463038918,-1788.5345266666538,-759.6283462484517,-890.5599264450074,-1483.1142779083252,-1453.9033585281372
630.0,1154.630010882458,-1796.7934187197952,-744.754120243868,-897.2526464614868,-1493.6478713989259,-1442.306997795105
640.0,1155.6644224934369,-1804.9762468937085,-729.8483421564049,-903.907354423523,-1504.1181865539552,-1430.6495333633422
650.0,1156.6495828944182,-1813.0828829313268,-714.9117328179642,-910.5238790855408,-1514.5249640045165,-1418.9316342697143
660.0,1157.585597552614,-1821.1132059639253,-699.9450115921886,-917.1020535354614,-1524.8679514160156,-1407.1539709625245
670.0,1158.472575600921,-1829.0671024887035,-684.9488962544303,-923.6417152023315,-1535.146903488159,-1395.317215171814
680.0,1159.310629836567,-1836.9444663396341,-669.9241028480868,-930.142705821991,-1545.3615820007324,-1383.4220397720337
690.0,1160.0998766224013,-1844.7451986191477,-654.8713455723484,-936.6048714523315,-1555.5117557373046,-1371.4691186294556
700.0,1160.8404358196951,-1852.469207644947,-639.7913367227175,-943.0280624427795,-1565.5972004394532,-1359.4591265182496
710.0,1161.5324307755677,-1860.1164089053814,-624.6847865443289,-949.4121334266663,-1575.6176988220216,-1347.3927389678954
720.0,1162.1759882810177,-1867.6867250408545,-609.5524031064937,-955.756943309784,-1585.573040588379,-1335.2706321334838
730.0,1162.771238454164,-1875.1800857246112,-594.394892256899,-962.0623552436829,-1595.4630222930907,-1323.0934826889038
740.0,1163.3183147280533,-1882.5964276568457,-579.2129574700998,-968.3282366294861,-1605.2874473876952,-1310.8619676818848
750.0,1163.8173537911819,-1889.9356945013358,-564.0072997810701,-974.5544590835572,-1615.0461261749267,-1298.5767644424438
760.0,1164.2684955539462,-1897.1978368184148,-548.7786176503985,-980.7408984184265,-1624.738875793457,-1286.238550430298
770.0,1164.6718830165603,-1904.382811979254,-533.5276069194744,-986.8874346275329,-1634.365520095825,-1273.8480031356812
780.0,1165.02766231396,-1911.4905841736643,-518.2549606700546,-992.9939518737793,-1643.9258897399902,-1261.4057999649049
790.0,1165.3359826029407,-1918.5211242871326,-502.9613691589384,-999.0603384437561,-1653.4198220672608,-1248.9126181182862
800.0,1165.5969959760127,-1925.4744098412916,-487.64751972136645,-1005.0864867477417,-1662.8471610412598,-1236.3691344604492
810.0,1165.8108574985547,-1932.350424979573,-472.3140966708233,-1011.0722932891846,-1672.20775730896,-1223.7760254364014
820.0,1165.9777250709162,-1939.149160340336,-456.9617812592948,-1017.0176586265563,-1681.5014680480956,-1211.1339669647216
830.0,1166.097759395813,-1945.8706130248102,-441.591251530578,-1022.9224873657226,-1690.728156982422,-1198.443634284973
840.0,1166.17112393172,-1952.514786525584,-426.20318228778535,-1028.786688129425,-1699.8876943206787,-1185.7057018966675
850.0,1166.1979848260758,-1959.0816906467523,-410.79824498466684,-1034.6101735191346,-1708.9799567108155,-1172.920843421936
860.0,1166.1785108644287,-1965.5713414410332,-395.3771076928725,-1040.3928600959778,-1718.004827178955,-1160.0897315444947
870.0,1166.1128734142162,-1971.9837611515084,-379.940434960169,-1046.134668357849,-1726.9621951141357,-1147.2130378494262
880.0,1166.0012463468966,-1978.318978104983,-364.4888877957888,-1051.8355226898193,-1735.851956161499,-1134.291432762146
890.0,1165.8438060157318,-1984.5770266788127,-349.02312357900513,-1057.4953513526916,-1744.67401222229,-1121.3255854492188
900.0,1165.6407312033227,-1990.757947221764,-333.5437959716131,-1063.1140864448548,-1753.428271408081,-1108.3161637039184
910.0,1165.3922030032754,-1996.8617859443207,-318.05155490048986,-1068.6916638679504,-1762.1146479034423,-1095.2638338699342
920.0,1165.098404840038,-2002.8885948908282,-302.5470464420668,-1074.2280232963562,-1770.7330620117189,-1082.169260734558
930.0,1164.75952234613,-2008.8384318313485,-287.0309127977552,-1079.7231081466675,-1779.2834400177003,-1069.0331074447631
940.0,1164.3757433873825,-2014.7113602152601,-271.5037921914536,-1085.1768655395508,-1787.7657142181397,-1055.85603540802
950.0,1163.9472579067012,-2020.5074490650568,-255.96631887767626,-1090.5892462730408,-1796.1798227539061,-1042.6387042312622
960.0,1163.474257952084,-2026.2267729109383,-240.41912301822612,-1095.9602047691346,-1804.525709640503,-1029.381771598816
970.0,1162.9569375842907,-2031.869411735662,-224.86283067494443,-1101.289699066162,-1812.8033246765137,-1016.0858932266235
980.0,1162.395492837674,-2037.4354508743108,-209.29806371554582,-1106.5776907615661,-1821.0126233978272,-1002.7517227401734
990.0,1161.7901216293883,-2042.9249809202954,-193.72543982553913,-1111.8241449813843,-1829.1535669555665,-989.3799116363525
1000.0,1161.141023766016,-2048.3380976999424,-178.14557238572206,-1117.0290303459167,-1837.2261221618653,-975.9711091690064
1010.0,1160.4484008252234,-2053.674902141256,-162.5590704876161,-1122.1923189315796,-1845.2302613220215,-962.5259622955323
1020.0,1159.7124561516207,-2058.935500222965,-146.9665388638333,-1127.313986228943,-1853.165962234497,-949.045115600586
1030.0,1158.9333947821585,-2064.120002895761,-131.36857784023636,-1132.394011112213,-1861.0332081146241,-935.5292112121582
1040.0,1158.1114233860778,-2069.2285259950586,-115.76578330244357,-1137.4323757972718,-1868.8319875183106,-921.9788887329101
1050.0,1157.2467502374795,-2074.261190169721,-100.15874666480313,-1142.429065799713,-1876.5622942962646,-908.3947851867675
1060.0,1156.339585134736,-2079.2181207976478,-84.54805483534362,-1147.384069908142,-1884.2241275024414,-894.777534942627
1070.0,1155.3901393610831,-2084.0994478995494,-68.93429016407102,-1152.2973801193236,-1891.8174913482667,-881.1277696380615
1080.0,1154.3986256323722,-2088.9053060774454,-53.318030429830074,-1157.168991634369,-1899.3423951263428,-867.4461181335449
1090.0,1153.3652580761632,-2093.635834444155,-37.69984877704643,-1161.9989027900697,-1906.7988531951905,-853.7332064361573
1100.0,1152.2902521043507,-2098.291176493374,-22.08031375091814,-1166.7871150283813,-1914.1868847961425,-839.989657661438
1110.0,1151.1738244627704,-2102.871480090339,-6.459989191488247,-1171.533632862091,-1921.5065141296386,-826.2160919494629
1120.0,1150.0161930965417,-2107.376897330277,9.16056573773909,-1176.2384638214112,-1928.757770172119,-812.4131264190673
1130.0,1148.8175771480235,-2111.807584518954,24.78079657768365,-1180.9016184387208,-1935.9406866760253,-798.5813751373291
1140.0,1147.5781969013435,-2116.1637020358253,40.40015362876758,-1185.523110168457,-1943.055302078247,-784.7214490203858
1150.0,1146.298273716902,-2120.4454143070748,56.01809194888594,-1190.1029553909302,-1950.101659439087,-770.8339558105469
1160.0,1144.978030009344,-2124.6528896933487,71.6340713509199,-1194.641173336029,-1957.0798063659668,-756.9195000457763
1170.0,1143.6176891766784,-2128.7863004240735,87.24755646360455,-1199.1377860603332,-1963.9897949523927,-742.9786829681397
1180.0,1142.217475581168,-2132.8458225365425,102.85801672730257,-1203.5928184051513,-1970.8316817321777,-729.0121025085449
1190.0,1140.7776144824763,-2136.8316357692097,118.4649263945435,-1208.0062979469299,-1977.605527572632,-715.0203532409668
1200.0,1139.298331990822,-2140.743923509514,134.06776456137783,-1212.3782549705506,-1984.311397628784,-701.0040263290405
1210.0,1137.7798550325856,-2144.5828726960867,149.66601517234162,-1216.7087224121094,-1990.94936126709,-686.963709487915
1220.0,1136.222411306201,-2148.3486737731228,165.25916703778202,-1220.997735836029,-1997.5194920196534,-672.899986946106
1230.0,1134.6262292305753,-2152.041520577933,180.84671381301084,-1225.2453333740234,-2004.021867477417,-658.8134394226074
1240.0,1132.9915379182237,-2155.6616103099445,196.42815404144594,-1229.4515557060242,-2010.4565692749024,-644.7046440734863
1250.0,1131.3185671233718,-2159.2091434133486,212.00299114072976,-1233.6164459953309,-2016.8236829833984,-630.5741744613647
1260.0,1129.6075471957624,-2162.6843235368574,227.57073342022125,-1237.740049873352,-2023.1232980651855,-616.4226005172729
1270.0,1127.8587090336953,-2166.087357437646,243.13089405898984,-1241.8224153823853,-2029.3555077819824,-602.2504885253907
1280.0,1126.072284047366,-2169.418454906467,258.6829911240507,-1245.8635929374695,-2035.5204091339112,-588.0584010772706
1290.0,1124.2485041620175,-2172.6778287426323,274.2265475838338,-1249.8636352958679,-2041.618102859497,-573.8468970565796
1300.0,1122.3876017136806,-2175.865694608677,289.7610912781626,-1253.8225974960328,-2047.6486932678222,-559.6165316009522
1310.0,1120.4898094425632,-2178.9822710263807,305.2861549251493,-1257.7405368499756,-2053.6122882385253,-545.3678560943604
1320.0,1118.5553604378595,-2182.0277792430306,320.80127613528,-1261.6175128669738,-2059.5089991149903,-531.1014181060791
1330.0,1116.58448814505,-2185.002443234753,336.3059973830525,-1265.4535872459412,-2065.3389407043455,-516.8177614212036
1340.0,1114.5774262679265,-2187.90648956843,351.79986602377,-1269.2488238105775,-2071.1022311401366,-502.5174259643555
1350.0,1112.5344087818723,-2190.740147381825,367.2824342591189,-1273.0032884902955,-2076.7989918670655,-488.2009478302002
1360.0,1110.4556698651033,-2193.50364828642,382.7532591505044,-1276.7170492668151,-2082.4293475494383,-473.8688592300415
1370.0,1108.3414438837217,-2196.197226308807,398.2119026149772,-1280.3901761398315,-2087.993426025391,-459.5216884765625
1380.0,1106.1919653442997,-2198.821117835301,413.6579313814084,-1284.0227410964965,-2093.491358230591,-445.1599599990845
1390.0,1104.0074688727514,-2201.3755615303908,429.09091702840266,-1287.6148180618286,-2098.9232781524656,-430.78419428253176
1400.0,1101.7881891681243,-2203.8607982714907,444.51043591334013,-1291.166482860565,-2104.2893227386476,-416.39490790557863
1410.0,1099.5343609953638,-2206.27707111618,459.9160692283045,-1294.677813194275,-2109.5896318969726,-401.99261347961425
1420.0,1097.2462191060324,-2208.624625180196,475.30740292660835,-1298.148888584137,-2114.8243483428955,-387.5778196640015
1430.0,1094.9239982418178,-2210.9037076171476,490.68402772928187,-1301.5797903442383,-2119.993617599487,-373.15103115844727
1440.0,1092.567933129686,-2213.1145675705425,506.04553912689926,-1304.970601551056,-2125.097587966919,-358.7127486877441
1450.0,1090.1782583690663,-2215.2574560414496,521.3915373284138,-1308.3214069824219,-2130.1364103546143,-344.2634689865112
1460.0,1087.755208487703,-2217.3326259140613,536.7216272844222,-1311.6322931175232,-2135.1102383422854,-329.80368479919434
1470.0,1085.2990178657356,-2219.340331830762,552.0354186332903,-1314.9033480644225,-2140.0192280426027,-315.3338848800659
1480.0,1082.8099207271384,-2221.280830173346,567.3325257021465,-1318.1346615486145,-2144.8635380859373,-300.8545539855957
1490.0,1080.2881510957468,-2223.1543789779007,582.6125674710162,-1321.3263248672486,-2149.6433295288084,-286.3661728744507
1500.0,1077.7339427844872,-2224.9612378898387,597.8751675746464,-1324.478430858612,-2154.358765823364,-271.8692182922363
1510.0,1075.1475293312062,-2226.7016680931024,613.1199542668078,-1327.5910738639832,-2159.01001272583,-257.36416297149657
1520.0,1072.5291440476492,-2228.375932282653,628.3465604112023,-1330.6643496894837,-2163.597238311768,-242.85147564697266
1530.0,1069.8790199092666,-2229.984294572136,643.5546234228108,-1333.698355583191,-2168.120612823486,-228.33162105560302
1540.0,1067.1973896001284,-2231.527020478378,658.7437853056206,-1336.6931901931762,-2172.58030871582,-213.80505991363526
1550.0,1064.484485428136,-2233.0043768162345,673.9136925724922,-1339.6489535293579,-2176.97650050354,-199.27224893951416
1560.0,1061.7405393693525,-2234.416631705932,689.063996255085,-1342.5657469406128,-2181.309364807129,-184.73364086151122
1570.0,1058.965782958785,-2235.764054464981,704.1943518661153,-1345.4436730804443,-2185.579080200195,-170.18968439483643
1580.0,1056.1604473361213,-2237.0469155902347,719.3044193762448,-1348.2828358726501,-2189.7858272247313,-155.64082427215575
1590.0,1053.3247632160999,-2238.2654866950215,734.3938631828023,-1351.0833404655457,-2193.9297883300783,-141.08750125122071
1600.0,1050.4589608436863,-2239.4200404723206,749.4623521006146,-1353.8452932319642,-2198.0111478118897,-126.53015209960938
1610.0,1047.5632699646123,-2240.510850607368,764.5095593245087,-1356.5688017044067,-2202.03009173584,-111.96920960235596
