sat1Name,LLO-48
sat1Smaj,3416.853
sat1Ecc,0.3558571790332375
sat1Inc,90.33757316312403
sat1RAAN,237.05912283766762
sat1ArgPer,293.02280897351005
sat1TrAnom,0
Time[EpSec],xF[km],yF[km],zF[km],xI[km],yI[km],zI[km]
0.0,968.7421072076125,-1180.9324348078972,-1584.6387769277953,-458.0544558258057,-728.8860986175537,-2025.5996420669555
10.0,972.5260581169952,-1193.3138518480296,-1573.028012035729,-466.7749852676392,-742.2707710418701,-2018.7563560180663
20.0,976.2646314879006,-1205.640596594505,-1561.3449130106171,-475.4740506324768,-755.621311050415,-2011.8202399063111
30.0,979.9576616586086,-1217.9121038994037,-1549.5900223718713,-484.1512535171509,-768.9371073150635,-2004.7916194992065
40.0,983.6049872916722,-1230.1278139547599,-1537.7638893478731,-492.8061976737976,-782.2175518951416,-1997.670829269409
50.0,987.2064514565276,-1242.287172441874,-1525.867069796114,-501.4384890937805,-795.4620404052735,-1990.4582123794555
60.0,990.7619016468069,-1254.3896306035122,-1513.9001260484536,-510.0477360649109,-808.6699721221923,-1983.1541205596923
70.0,994.2711897947694,-1266.4346453538253,-1501.863626839117,-518.6335492591858,-821.840750076294,-1975.7589140701293
80.0,997.734172297503,-1278.4216793977726,-1489.7581471589851,-527.1955418128967,-834.9737811889648,-1968.2729616012573
90.0,1001.1507100721693,-1290.3502013004204,-1477.5842681645538,-535.733329372406,-848.0684763793945,-1960.6966402206422
100.0,1004.5206685124598,-1302.2196855967375,-1465.3425770409149,-544.2465301971436,-861.1242506408691,-1953.0303352584838
110.0,1007.8439175730027,-1314.02961288488,-1453.0336668862076,-552.7347652053833,-874.1405231933594,-1945.2744402465821
120.0,1011.1203317426033,-1325.7794699083613,-1440.6581366019732,-561.1976580581666,-887.1167175445556,-1937.4293568267822
130.0,1014.3497901246028,-1337.4687496785227,-1428.2165907374458,-569.6348352203369,-900.0522616729736,-1929.495494659424
140.0,1017.5321763666151,-1349.0969515150682,-1415.7096393963648,-578.04592603302,-912.9465880279541,-1921.4732713241576
150.0,1020.6673787299942,-1360.6635811542242,-1403.1378981140535,-586.4305627746583,-925.799133682251,-1913.3631122512818
160.0,1023.7552901127646,-1372.1681508426407,-1390.5019876697304,-594.7883807258606,-938.6093404693604,-1905.1654505767822
170.0,1026.7958080130845,-1383.6101793931923,-1377.8025340368551,-603.1190182418824,-951.3766549987793,-1896.8807270965576
180.0,1029.7888345842086,-1394.9891922806491,-1365.0401681841242,-611.4221168022156,-964.1005288238525,-1888.50939012146
190.0,1032.734276600491,-1406.3047216981506,-1352.2155259917995,-619.6973210830688,-976.7804184722901,-1880.051895401001
200.0,1035.6320455134426,-1417.5563066529276,-1339.3292480937725,-627.944279006958,-989.4157855987548,-1871.5087060165406
210.0,1038.4820574172177,-1428.7434930230197,-1326.3819797188776,-636.1626418113708,-1002.0060970458984,-1862.8802922363282
220.0,1041.2842330394124,-1439.865833614983,-1313.374370622877,-644.3520641059876,-1014.5508248901367,-1854.1671314620971
230.0,1044.0384978256377,-1450.9228882597918,-1300.3070748638802,-652.5122039146423,-1027.0494466400146,-1845.3697080688476
240.0,1046.7447818089797,-1461.9142238249904,-1287.1807507594644,-660.6427227439881,-1039.501445159912,-1836.4885133285522
250.0,1049.4030197521713,-1472.8394143419023,-1273.9960606456439,-668.7432856369019,-1051.9063089294434,-1827.5240452575683
260.0,1052.013151023041,-1483.698040992359,-1260.7536708205246,-676.8135612106323,-1064.263531967163,-1818.4768085250855
270.0,1054.5751196422452,-1494.4896922126552,-1247.4542513646659,-684.8532217330933,-1076.5726139831543,-1809.3473143234253
280.0,1057.088874299311,-1505.213963716618,-1234.0984760059766,-692.8619431343078,-1088.8330604553223,-1800.136080253601
290.0,1059.5543683000685,-1515.8704585631463,-1220.6870219806292,-700.839405090332,-1101.044382675171,-1790.8436301956176
300.0,1061.9715595995344,-1526.4587872011082,-1207.2205698790335,-708.7852910461426,-1113.2060978546142,-1781.4704941864013
310.0,1064.3404107365752,-1536.9785674890038,-1193.6998035318145,-716.6992882728576,-1125.3177291259765,-1772.0172082977294
320.0,1066.6608888749147,-1547.4294247697053,-1180.1254098367797,-724.5810879058838,-1137.3788056793212,-1762.4843145065308
330.0,1068.932965775005,-1557.8109918795176,-1166.498078626771,-732.4303849754333,-1149.3888627929687,-1752.8723605651855
340.0,1071.156617752798,-1568.1229092070664,-1152.8185025449989,-740.2468784751892,-1161.3474418792725,-1743.181899887085
350.0,1073.3318257103501,-1578.364824708785,-1139.0873768491904,-748.0302713623047,-1173.2540905914307,-1733.413491378784
360.0,1075.458575049345,-1588.5363939409642,-1125.3053993511062,-755.7802706336975,-1185.1083627929688,-1723.5676993637085
370.0,1077.5368557451498,-1598.6372801013122,-1111.4732701833207,-763.4965873260498,-1196.9098187255859,-1713.645093399048
380.0,1079.5666622314222,-1608.6671540322452,-1097.5916917295358,-771.1789365768433,-1208.65802494812,-1703.6462481765748
390.0,1081.5479934398327,-1618.6256942648988,-1083.6613684436659,-778.8270376434326,-1220.3525544586182,-1693.5717433776856
400.0,1083.480852745908,-1628.51258700458,-1069.683006715385,-786.4406139259338,-1231.992986694336,-1683.4221635284423
410.0,1085.36524799784,-1638.3275262102577,-1055.6573147167692,-794.0193930168152,-1243.5789076538085,-1673.1980978851318
420.0,1087.201191391347,-1648.070213524215,-1041.5850022960167,-801.5631067085266,-1255.1099098052978,-1662.9001402816773
430.0,1088.988699526756,-1657.7403583498615,-1027.4667807914664,-809.0714910354615,-1266.5855922393798,-1652.5288889923095
440.0,1090.7277933661048,-1667.3376778370525,-1013.3033629255867,-816.5442862854004,-1278.0055606689452,-1642.0849466171264
450.0,1092.4184981768205,-1676.861896879699,-999.095462650518,-823.9812370262146,-1289.369427444458,-1631.568919921875
460.0,1094.0608435119839,-1686.3127481327824,-984.8437950101832,-831.3820921325683,-1300.6768115997315,-1620.981419708252
470.0,1095.6548632029296,-1695.6899720085175,-970.5490759957554,-838.7466047935486,-1311.927338897705,-1610.3230606765746
480.0,1097.2005952944746,-1704.9933166758249,-956.2120224180867,-846.0745325431824,-1323.1206418304444,-1599.594461288452
490.0,1098.6980820112074,-1714.2225380464251,-941.8333517818585,-853.3656372680664,-1334.2563596343994,-1588.796243637085
500.0,1100.1473697481506,-1723.3773997938576,-927.4137821277749,-860.6196852340698,-1345.3341383514405,-1577.929033302307
510.0,1101.5485090180005,-1732.457673300416,-912.954031897673,-867.8364470710754,-1356.3536308135986,-1566.993459197998
520.0,1102.9015544073104,-1741.4631376996501,-898.4548198229645,-875.0156978302002,-1367.314496673584,-1555.990153465271
530.0,1104.2065645574419,-1750.3935798169412,-883.9168647715397,-882.1572169456482,-1378.216402420044,-1544.9197513122558
540.0,1105.4636021174995,-1759.2487941816794,-869.3408856211994,-889.2607882766723,-1389.0590213928222,-1533.7828908843994
550.0,1106.6727337007333,-1768.0285830019266,-854.7276011469055,-896.3262001037598,-1399.8420337829589,-1522.580213142395
560.0,1107.8340298092205,-1776.7327561160341,-840.0777298771304,-903.353245136261,-1410.5651266021728,-1511.312361694336
570.0,1108.9475648904881,-1785.361131026853,-825.3919899416245,-910.3417205085755,-1421.2279938049317,-1499.9799826812744
580.0,1110.013417193877,-1793.9135328296584,-810.6710990048105,-917.2914277954102,-1431.8303361663818,-1488.5837246551514
590.0,1111.031668758318,-1802.3897941928465,-795.9157740932822,-924.2021730079651,-1442.371861328125,-1477.1242384109496
600.0,1112.0024053959864,-1810.7897553327728,-781.1267314915088,-931.073766582489,-1452.8522838134766,-1465.6021768798828
610.0,1112.9257166261075,-1819.1132640056023,-766.304686600243,-937.9060234069824,-1463.2713250274658,-1454.0181949768066
620.0,1113.8016956365761,-1827.3601754374085,-751.4503538502375,-944.6987627830505,-1473.6287132263183,-1442.3729494934082
630.0,1114.630439187528,-1835.5303522871943,-736.56444657106,-951.4518084526062,-1483.9241834716797,-1430.6670989379884
640.0,1115.4120476658873,-1843.6236646575496,-721.6476768450751,-958.1649885749816,-1494.1574777374267,-1418.9013034210204
650.0,1116.1466249659177,-1851.639990010461,-706.7007554355074,-964.8381357192993,-1504.3283448028565,-1407.0762245330811
660.0,1116.8342784157037,-1859.5792131241658,-691.7243916568867,-971.4710868721008,-1514.4365402221679,-1395.1925251922607
670.0,1117.47511882077,-1867.44122608021,-676.7192932478844,-978.0636834068298,-1524.4818264007567,-1383.2508695373535
680.0,1118.0692603243804,-1875.2259281943725,-661.686166292073,-984.6157710876465,-1534.4639724884032,-1371.2519227981568
690.0,1118.6168204500964,-1882.933225994926,-646.6257150552748,-991.127200050354,-1544.3827544555663,-1359.1963511505128
700.0,1119.117919921768,-1890.5630331359278,-631.5386419719747,-997.5978248023987,-1554.237954925537,-1347.0848216323852
710.0,1119.5726827690178,-1898.1152703933292,-616.4256474327476,-1004.0275041885376,-1564.0293633270264,-1334.918001976013
720.0,1119.9812361264067,-1905.5898655543717,-601.2874297754172,-1010.4161013832093,-1573.7567756958008,-1322.6965605163575
730.0,1120.343710314183,-1912.9867534456146,-586.1246851129125,-1016.7634838867187,-1583.4199948120117,-1310.4211660614014
740.0,1120.660238698724,-1920.3058757957622,-570.9381072724474,-1023.0695234832764,-1593.0188300476075,-1298.0924877624511
750.0,1120.9309576587277,-1927.547181237047,-555.7283877049208,-1029.3340962486268,-1602.553097381592,-1285.711195022583
760.0,1121.1560065544984,-1934.7106252134477,-540.4962153634631,-1035.5570825080872,-1612.0226193695069,-1273.2779573516846
770.0,1121.33552766138,-1941.796169943676,-525.2422766165059,-1041.7383668289185,-1621.427225112915,-1260.7934442596436
780.0,1121.4696661261287,-1948.8037843532143,-509.96725518831124,-1047.8778379898072,-1630.766750213623,-1248.2583251724243
790.0,1121.5585699077385,-1955.7334440187342,-494.67183200997476,-1053.9753889656067,-1640.041036758423,-1235.6732692642213
800.0,1121.602389704976,-1962.5851310830012,-479.35668519856546,-1060.0309168968201,-1649.249933227539,-1223.0389453964233
810.0,1121.601278945051,-1969.3588342319392,-464.0224899258518,-1066.0443230781555,-1658.3932945251465,-1210.356021987915
820.0,1121.5553937162724,-1976.0545485932216,-448.6699183568439,-1072.0155129051209,-1667.470981903076,-1197.6251669158935
830.0,1121.4648926764178,-1982.6722756820461,-433.29963955310615,-1077.9443958778381,-1676.4828628997802,-1184.8470473861694
840.0,1121.3299370600403,-1989.2120233445905,-417.91231941025904,-1083.8308855552673,-1685.428811340332,-1172.022329864502
850.0,1121.15069056775,-1995.6738056736992,-402.508620573406,-1089.674899536133,-1694.308707244873,-1159.1516799468993
860.0,1120.927319366918,-2002.0576429593475,-387.0892023673423,-1095.476359424591,-1703.1224368286132,-1146.2357622833251
870.0,1120.65999200526,-2008.3635615993865,-371.65472071354077,-1101.2351907958985,-1711.869892425537,-1133.2752404556275
880.0,1120.3488793653692,-2014.5915940521681,-356.2058280574853,-1106.9513231811522,-1720.5509724578858,-1120.2707768859864
890.0,1119.9941545974198,-2020.7417787269642,-340.7431733271349,-1112.6246900138856,-1729.1655813446046,-1107.2230327529908
900.0,1119.5959930966278,-2026.8141599633911,-325.26740182141504,-1118.2552286262512,-1737.7136295166015,-1094.1326678771973
910.0,1119.154572437475,-2032.80878792276,-309.7791551829373,-1123.8428801879884,-1746.1950333251953,-1081.0003406524659
920.0,1118.6700723060922,-2038.7257185249007,-294.279071336975,-1129.387589691162,-1754.6097149810792,-1067.8267079544066
930.0,1118.1426744533499,-2044.5650133718127,-278.76778438410116,-1134.8893059082031,-1762.9576025238036,-1054.6124250106811
940.0,1117.572562656356,-2050.3267396779706,-263.2459246157395,-1140.3479813652039,-1771.2386297454834,-1041.358145385742
950.0,1116.9599226849084,-2056.0109702094082,-247.71411835424917,-1145.7635722923278,-1779.4527362060546,-1028.0645208129883
960.0,1116.3049421670166,-2061.6177831621458,-232.17298802190496,-1151.1360386047363,-1787.5998670349122,-1014.7322011871338
970.0,1115.607810634675,-2067.147262144605,-216.62315198707708,-1156.4653438568116,-1795.679973022461,-1001.3618344345093
980.0,1114.8687194340296,-2072.599496075033,-201.0652245621325,-1161.7514552078246,-1803.693010498047,-987.9540664596558
990.0,1114.0878616271796,-2077.9745790766538,-185.49981594615815,-1166.9943433876037,-1811.6389412231445,-974.5095410385131
1000.0,1113.2654320361812,-2083.272610467896,-169.92753216025943,-1172.1939826545715,-1819.5177324523925,-961.0288997726441
1010.0,1112.4016271173684,-2088.493694621494,-154.34897503487056,-1177.3503507537841,-1827.329356765747,-947.5127820053101
1020.0,1111.4966449350518,-2093.6379409222604,-138.76474214553832,-1182.4634288940429,-1835.0737920532226,-933.9618247451782
1030.0,1110.5506851106506,-2098.7054636712946,-123.17542675277357,-1187.5332016906739,-1842.7510214538574,-920.376662574768
1040.0,1109.5639487836645,-2103.6963820356123,-107.58161781874975,-1192.5596571426393,-1850.3610332946778,-906.7579276428222
1050.0,1108.536638533629,-2108.6108199389364,-91.98389990337554,-1197.5427865867614,-1857.9038210144042,-893.1062495193481
1060.0,1107.468958383674,-2113.4489060041014,-76.3828531769705,-1202.4825846481324,-1865.3793831329347,-879.4222551956177
1070.0,1106.3611136833943,-2118.2107734675587,-60.779053369795434,-1207.379049217224,-1872.7877231445314,-865.7065689849853
1080.0,1105.213311124539,-2122.896560105716,-45.17307172250468,-1212.2321814002992,-1880.1288495025635,-851.9598124618531
1090.0,1104.025758638976,-2127.506408155431,-29.565474985274253,-1217.0419854850768,-1887.4027755126954,-838.1826044158936
1100.0,1102.7986653987655,-2132.0404642305234,-13.956825374229112,-1221.8084688835145,-1894.6095193023682,-824.3755607910156
1110.0,1101.5322417425607,-2136.4988792597765,1.6523194555582013,-1226.5316421165467,-1901.7491037445068,-810.5392946243286
1120.0,1100.2266991343179,-2140.8818083977326,17.261406442013453,-1231.2115187568666,-1908.8215563964843,-796.6744159851074
1130.0,1098.8822501125605,-2145.189410939137,32.869887128319355,-1235.8481153831483,-1915.826909423828,-782.7815319290161
1140.0,1097.4991082674283,-2149.421850275133,48.4772176931873,-1240.4414515609742,-1922.7651995697022,-768.8612464523316
1150.0,1096.0774881655052,-2153.579293774199,64.08285896510945,-1244.99154977417,-1929.6364680480956,-754.9141604309082
1160.0,1094.6176053148104,-2157.6619127332,79.68627644689055,-1249.498435409546,-1936.440760498047,-740.9408715744019
1170.0,1093.1196761612532,-2161.6698823008755,95.28694033077964,-1253.9621366882325,-1943.178126953125,-726.9419743957519
1180.0,1091.5839179544996,-2165.6033813761937,110.88432550344162,-1258.3826846504212,-1949.8486216888427,-712.9180601425171
1190.0,1090.0105488058407,-2169.462592574015,126.47791159753909,-1262.7601131019592,-1956.4523032684326,-698.869716758728
1200.0,1088.3997875763805,-2173.2477021066693,142.06718296072924,-1267.0944585647583,-1962.9892343902588,-684.7975288543702
1210.0,1086.7518538702493,-2176.9588997432834,157.65162869167048,-1271.3857602539063,-1969.4594818725586,-670.702077659607
1220.0,1085.066967974921,-2180.5963787143887,173.23074263212527,-1275.6340600204467,-1975.8631165618897,-656.5839409942627
1230.0,1083.3453508337532,-2184.1603356402275,188.80402340511756,-1279.8394023132323,-1982.2002132873536,-642.4436932067871
1240.0,1081.5872240033423,-2187.6509704777254,204.37097439807536,-1284.001834148407,-1988.4708507995606,-628.281905166626
1250.0,1079.7928096029186,-2191.06848641706,219.93110376911028,-1288.1214050559997,-1994.6751116790772,-614.0991442184448
1260.0,1077.962330294258,-2194.4130898260223,235.48392446976433,-1292.198167037964,-2000.8130823059082,-599.8959741439819
1270.0,1076.0960092181654,-2197.684990174911,251.02895423061656,-1296.2321745376587,-2006.8848527679443,-585.6729551391602
1280.0,1074.194069966726,-2200.8843999586506,266.56571556525654,-1300.2234843940735,-2012.8905167999267,-571.4306437835693
1290.0,1072.25673659169,-2204.0115346520765,282.09373579745306,-1304.1721557922363,-2018.8301717834472,-557.1695930099487
1300.0,1070.2842334608226,-2207.0666125856746,297.61254700619963,-1308.0782502403258,-2024.703918548584,-542.8903520812988
1310.0,1068.2767853352073,-2210.0498549346376,313.12168606770354,-1311.9418315124512,-2030.5118614501953,-528.5934665756225
1320.0,1066.2346172674986,-2212.961485601196,328.6206946656904,-1315.7629656105041,-2036.2541082305909,-514.2794783172608
1330.0,1064.1579545959476,-2215.8017311966737,344.10911923706345,-1319.5417207450866,-2041.9307699890137,-499.9489254226685
1340.0,1062.04702287893,-2218.570820910138,359.58651099304086,-1323.2781672592164,-2047.541961074829,-485.60234223175047
1350.0,1059.9020478999325,-2221.2689864957306,375.0524259330985,-1326.972377620697,-2053.087799087524,-471.24025929260256
1360.0,1057.7232556006252,-2223.8964621730333,390.5064248171521,-1330.6244263648987,-2058.5684047698974,-456.8632033462524
1370.0,1055.510872063554,-2226.453484567945,405.9480731274604,-1334.2343900604249,-2063.9839019470214,-442.47169734191897
1380.0,1053.265123486433,-2228.9402926682683,421.37694112563514,-1337.8023472785949,-2069.3344175109864,-428.0662603683472
1390.0,1050.9862361430019,-2231.357127719811,436.7926037965297,-1341.3283785324097,-2074.6200813140867,-413.6474076690674
1400.0,1048.6744363415385,-2233.704233189173,452.1946408516259,-1344.8125662612915,-2079.841026123047,-399.21565061950685
1410.0,1046.3299504172344,-2235.9818547012355,467.58263670348686,-1348.2549947814941,-2084.997387573242,-384.7714967346191
1420.0,1043.9530046618493,-2238.190239939016,482.95618046646433,-1351.6557502441406,-2090.08930406189,-370.3154496231079
1430.0,1041.5438253606922,-2240.3296386446486,498.3148659466175,-1355.0149206085205,-2095.1169167785642,-355.84800901031497
1440.0,1039.102638702325,-2242.4003025002703,513.6582916307041,-1358.3325955963135,-2100.080369567871,-341.36967069244383
1450.0,1036.6296707646536,-2244.4024850938113,528.986060625782,-1361.6088666610717,-2104.979808883667,-326.88092658233643
1460.0,1034.125147516027,-2246.3364418556666,544.297780708838,-1364.843826942444,-2109.8153837738037,-312.3822646484375
1470.0,1031.5892947577724,-2248.202429994664,559.5930642771432,-1368.0375712356567,-2114.5872457885744,-297.8741689300537
1480.0,1029.02233810093,-2250.000708439506,574.8715283100803,-1371.190195953369,-2119.295548919678,-283.3571195526123
1490.0,1026.4245029644005,-2251.7315377920377,590.1327943978607,-1374.301799091339,-2123.940449584961,-268.83159268951414
1500.0,1023.7960144960757,-2253.395180232484,605.3764886672122,-1377.3724801902772,-2128.522106491089,-254.29806058502197
1510.0,1021.1370976314919,-2254.9918995278795,620.6022418309043,-1380.4023403015137,-2133.040680709839,-239.75699153137208
1520.0,1018.4479769871334,-2256.5219609136625,635.8096890960605,-1383.3914819526672,-2137.496335494995,-225.2088498916626
1530.0,1015.728876869278,-2257.9856310604987,650.9984701845929,-1386.3400091133117,-2141.8892362823485,-210.65409607696535
1540.0,1012.9800212710549,-2259.383178034929,666.1682292996134,-1389.2480271568297,-2146.2195506591797,-196.09318656921386
1550.0,1010.2016338350296,-2260.714871239993,681.3186151298869,-1392.1156428375243,-2150.4874483032227,-181.52657389068602
1560.0,1007.3939377838248,-2261.98098131789,696.4492807469978,-1394.9429642372131,-2154.693100845337,-166.95470665740967
1570.0,1004.5571559934303,-2263.18178018027,711.5598836951898,-1397.7301007537842,-2158.8366819763182,-152.37802952575683
1580.0,1001.6915108837028,-2264.3175408773554,726.6500858723882,-1400.4771630516052,-2162.918367248535,-137.7969832382202
1590.0,998.7972244410407,-2265.3885375887044,741.7195535624327,-1403.1842630348206,-2166.9383341064454,-123.2120046005249
1600.0,995.8745182069323,-2266.395045577343,756.767957368934,-1405.8515138206483,-2170.8967618255615,-108.62352652740479
