sat1Name,LLO-11
sat1Smaj,3416.853
sat1Ecc,0.3504555739426732
sat1Inc,90.87461739608393
sat1RAAN,237.32074780050885
sat1ArgPer,293.0164586978284
sat1TrAnom,0
Time[EpSec],xF[km],yF[km],zF[km],xI[km],yI[km],zI[km]
0.0,996.8457444505776,-1180.0664616141858,-1593.5709569820988,-442.29688934707644,-747.2469422912598,-2042.4794138259888
10.0,1000.6153030779102,-1192.370384558102,-1582.0322329252763,-450.95708245468137,-760.5551141357422,-2035.6811471557617
20.0,1004.3393349544114,-1204.6210343008067,-1570.4225604612823,-459.5970518760681,-773.8291780090332,-2028.7915880126952
30.0,1008.0176791259837,-1216.8178628589026,-1558.7424652241232,-468.2164116020203,-787.068541091919,-2021.8110518112182
40.0,1011.6501788417651,-1228.9603272911877,-1546.992479213513,-476.81477759552,-800.2726138458252,-2014.7398622512817
50.0,1015.2366816267908,-1241.0478898105907,-1535.1731407272123,-485.3917678489685,-813.4408101501465,-2007.5783513031006
60.0,1018.777039293264,-1253.0800178927982,-1523.2849941997463,-493.94700247573854,-826.5725474243164,-2000.326859085083
70.0,1022.2711079562453,-1265.0561843472738,-1511.3285901639117,-502.4801037635803,-839.6672466888427,-1992.9857338485717
80.0,1025.718748080006,-1276.975867431236,-1499.3044850995718,-510.99069623947145,-852.7243327178955,-1985.5553318786622
90.0,1029.1198244465288,-1288.8385509191298,-1487.213241363688,-519.4784067611695,-865.7432340698242,-1978.0360174331665
100.0,1032.4742062694636,-1300.6437242376508,-1475.0554270105115,-527.9428645591736,-878.72338331604,-1970.4281626434326
110.0,1035.7817671127,-1312.3908824893285,-1462.8316157652052,-536.3837013092041,-891.6642169952393,-1962.7321474685668
120.0,1039.0423849857182,-1324.0795266000287,-1450.5423868491307,-544.8005512084961,-904.5651758270263,-1954.9483595962524
130.0,1042.255942311636,-1335.709163355032,-1438.188324882634,-553.1930510215759,-917.4257047424317,-1947.0771943511963
140.0,1045.4223259668806,-1347.2793055252794,-1425.7700197673869,-561.5608401679992,-930.2452530212403,-1939.1190546264647
150.0,1048.5414272853752,-1358.7894719036972,-1413.2880665777768,-569.9035607566833,-943.0232743530273,-1931.0743507919312
160.0,1051.6131420617248,-1370.2391874106484,-1400.7430654267584,-578.2208576698304,-955.7592269439697,-1922.9435005950927
170.0,1054.6373705891108,-1381.6279831627244,-1388.1356213466038,-586.5123786087036,-968.4525736236573,-1914.7269290771485
180.0,1057.6140176366969,-1392.9553965448868,-1375.4663441795733,-594.7777741622925,-981.1027819061279,-1906.4250684814454
190.0,1060.542992485657,-1404.2209712815086,-1362.7358484175163,-603.0166978569031,-993.7093241119385,-1898.0383581314086
200.0,1063.424208912081,-1415.4242575069666,-1349.9447531407454,-611.2288062210083,-1006.2716774139404,-1889.5672443847657
210.0,1066.2575851895222,-1426.564811826441,-1337.093681821065,-619.4137588386536,-1018.7893239440918,-1881.0121804656983
220.0,1069.0430441191595,-1437.6421973802956,-1324.1832622635968,-627.5712183914185,-1031.261750869751,-1872.373626434326
230.0,1071.780513017246,-1448.6559839248835,-1311.2141264021952,-635.7008507385254,-1043.6884505004882,-1863.6520490112305
240.0,1074.4699236862205,-1459.6057478583348,-1298.1869102437067,-643.8023249435424,-1056.0689203033448,-1854.847921524048
250.0,1077.111212478168,-1470.4910723091382,-1285.1022536956982,-651.8753133354187,-1068.40266305542,-1845.9617237854004
260.0,1079.7043202366192,-1481.3115471759872,-1271.9608004338984,-659.9194915580749,-1080.6891868743896,-1836.9939419631958
270.0,1082.2491922953025,-1492.0667691674805,-1258.7631978203287,-667.9345386161805,-1092.9280052642823,-1827.945068511963
280.0,1084.7457784942185,-1502.756341877789,-1245.5100967145331,-675.920136932373,-1105.118637237549,-1818.8156020202637
290.0,1087.1940331866026,-1513.3798758285948,-1232.202151345131,-683.8759723777771,-1117.2606073913573,-1809.6060471038818
300.0,1089.5939151826728,-1523.9369884869168,-1218.8400192171848,-691.8017343177795,-1129.3534459075927,-1800.3169143066407
310.0,1091.9453877878257,-1534.427304348495,-1205.424360972796,-699.6971156692505,-1141.3966886749267,-1790.9487200012206
320.0,1094.2484187463544,-1544.8504549381169,-1191.9558402026214,-707.5618129272461,-1153.389877319336,-1781.5019861984254
330.0,1096.5029802584522,-1555.2060788710796,-1178.4351233933583,-715.3955262145996,-1165.3325592651368,-1771.9772405166625
340.0,1098.7090489765665,-1565.4938218934158,-1164.8628797369872,-723.1979593162537,-1177.224287826538,-1762.3750160140992
350.0,1100.866605941197,-1575.71333688491,-1151.2397810030461,-730.9688197174072,-1189.0646222076416,-1752.6958510513305
360.0,1102.9756366438232,-1585.864283929109,-1137.5665014350395,-738.7078186340332,-1200.8531276245117,-1742.9402892303467
370.0,1105.0361309159282,-1595.946330299665,-1123.8437175847482,-746.4146710624694,-1212.589375274658,-1733.1088792037963
380.0,1107.048082975801,-1605.9591505188546,-1110.0721082075627,-754.0890958023072,-1224.2729424438476,-1723.2021746063233
390.0,1109.011491388925,-1615.9024263524457,-1096.2523540953146,-761.7308154754638,-1235.903412536621,-1713.2207338867188
400.0,1110.92635903249,-1625.7758468570244,-1082.3851379786702,-769.3395565910339,-1247.4803751068116,-1703.1651202163696
410.0,1112.7926930988297,-1635.5791083716704,-1068.4711443701158,-776.915049533844,-1259.003425918579,-1693.0359013442994
420.0,1114.6105050523586,-1645.3119145568435,-1054.5110594453583,-784.4570286216735,-1270.4721669769287,-1682.833649482727
430.0,1116.3798106097736,-1654.9739763978864,-1040.5055708844397,-791.9652321243286,-1281.8862065734863,-1672.55894115448
440.0,1118.1006297043832,-1664.565012195317,-1026.4553677868812,-799.4394022750854,-1293.245159286499,-1662.2123571014404
450.0,1119.7729864767196,-1674.0847476049396,-1012.361140507819,-806.8792853088379,-1304.548646057129,-1651.7944821395874
460.0,1121.396909248872,-1683.5329156377802,-998.223580526173,-814.2846314773559,-1315.7962942199706,-1641.3059050292968
470.0,1122.9724304512783,-1692.9092566339762,-984.043380335931,-821.655195072174,-1326.9877374725343,-1630.747218345642
480.0,1124.4995866290255,-1702.2135182927177,-969.8212333038342,-828.9907344436646,-1338.1226159515381,-1620.1190183563233
490.0,1125.9784184422786,-1711.4454556836436,-955.5578335259966,-836.2910120124817,-1349.2005762939452,-1609.4219048919679
500.0,1127.4089705454592,-1720.60483118906,-941.2538757425326,-843.5557942886353,-1360.2212715454102,-1598.6564812164306
510.0,1128.7912916274531,-1729.691414552787,-926.9100551636154,-850.7848518943787,-1371.1843612823486,-1587.8233538894654
520.0,1130.1254343503545,-1738.7049828496188,-912.5270673893591,-857.9779595680237,-1382.089511581421,-1576.9231326675415
530.0,1131.4114553118582,-1747.6453204768804,-898.1056082427327,-865.1348961791992,-1392.9363950500488,-1565.9564303359984
540.0,1132.6494150059325,-1756.5122191228631,-883.6463736837145,-872.2554447288513,-1403.7246908111572,-1554.9238626098634
550.0,1133.8393778141194,-1765.3054778025032,-869.1500596455791,-879.3393923797607,-1414.4540845794677,-1543.8260479888916
560.0,1134.9814119189564,-1774.02490278552,-854.617361958382,-886.3865304489136,-1425.124268585205,-1532.6636076431275
570.0,1136.0755893060946,-1782.670307606048,-840.0489762127809,-893.3966544113159,-1435.734941635132,-1521.4371652908326
580.0,1137.1219856889647,-1791.2415130402217,-825.4455976172937,-900.3695639228821,-1446.28580909729,-1510.1473470382691
590.0,1138.1206805185486,-1799.7383470799266,-810.8079209025307,-907.3050627975464,-1456.7765829315185,-1498.794781288147
600.0,1139.0717569060212,-1808.1606449145709,-796.1366402194434,-914.2029590339661,-1467.2069816589355,-1487.3800986175538
610.0,1139.9753015459287,-1816.5082488757864,-781.4324489959878,-921.0630648078918,-1477.576730331421,-1475.9039316101075
620.0,1140.83140476753,-1824.7810084589723,-766.6960398318665,-927.8851964645386,-1487.8855606231689,-1464.3669147796631
630.0,1141.6401603927422,-1832.9787802316673,-751.9281044039623,-934.6691745223999,-1498.1332107086182,-1452.7696844177246
640.0,1142.4016657625584,-1841.1014278627918,-737.1293333254971,-941.4148236808777,-1508.319425354004,-1441.112878479004
650.0,1143.1160216766111,-1849.1488220615265,-722.3004160651681,-948.1219728012085,-1518.443955871582,-1429.3971364746094
660.0,1143.7833322896515,-1857.1208405023112,-707.4420408352846,-954.7904549026489,-1528.506560043335,-1417.623099319458
670.0,1144.403705173133,-1865.0173678630777,-692.5548944464344,-961.4201071662903,-1538.507002243042,-1405.791409225464
680.0,1144.97725116914,-1872.8382957353354,-677.6396622684007,-968.0107709236145,-1548.4450532989501,-1393.902709602356
690.0,1145.504084394855,-1880.5835225832882,-662.6970280848832,-974.5622916412353,-1558.320490524292,-1381.9576449127196
700.0,1145.984322177772,-1888.2529537228318,-647.727674000666,-981.0745189170838,-1568.1330977020264,-1369.9568605651855
710.0,1146.4180850431133,-1895.846501273118,-632.7322803290435,-987.5473064689636,-1577.882665084839,-1357.9010027923584
720.0,1146.8054965989138,-1903.3640840896326,-617.7115255353677,-993.9805121192932,-1587.568989303589,-1345.7907185516358
730.0,1147.1466835418623,-1910.8056277412827,-602.6660860857855,-1000.3739977874756,-1597.191873413086,-1333.626655380249
740.0,1147.4417756210107,-1918.1710644648883,-587.5966363958111,-1006.7276294708251,-1606.7511268615722,-1321.409461326599
750.0,1147.6909055228248,-1925.4603330930267,-572.503848718619,-1013.0412772331238,-1616.2465654144287,-1309.1397847976684
760.0,1147.8942088611632,-1932.6733789939674,-557.3883930668111,-1019.3148151779175,-1625.678011138916,-1296.8182744674682
770.0,1148.0518241528155,-1939.8101540740045,-542.25093710198,-1025.5481214523315,-1635.0452924346923,-1284.4455791702271
780.0,1148.1638927299125,-1946.87061667253,-527.0921460575903,-1031.7410782089232,-1644.3482439422608,-1272.0223477783204
790.0,1148.2305586809903,-1953.8547315133042,-511.9126826791032,-1037.8935715942382,-1653.5867064971924,-1259.549229118347
800.0,1148.251968859251,-1960.762469680329,-496.7132070870574,-1044.0054917297364,-1662.7605271759032,-1247.0268718414306
810.0,1148.2282727713755,-1967.593808521517,-481.4943767465163,-1050.0767326889038,-1671.869559173584,-1234.4559243392944
820.0,1148.159622544635,-1974.34873160338,-466.25684634767856,-1056.1071924743653,-1680.9136618041991,-1221.837034614563
830.0,1148.0461728933435,-1981.0272286720358,-451.0012677684693,-1062.0967730026246,-1689.8927004699708,-1209.170850227356
840.0,1147.8880810697874,-1987.6292955732197,-435.72828994587144,-1068.0453800697326,-1698.8065466308594,-1196.4580181427002
850.0,1147.6855067654085,-1994.1549341773605,-420.4385588676835,-1073.9529233322144,-1707.655077697754,-1183.699184677124
860.0,1147.4386121248262,-2000.6041523500944,-405.1327174356779,-1079.8193162841796,-1716.438177078247,-1170.8949953689576
870.0,1147.1475616573505,-2006.9769638672744,-389.81140542357764,-1085.6444762268065,-1725.155734085083,-1158.0460948944092
880.0,1146.8125221859411,-2013.2733883554267,-374.47525941742225,-1091.4283242454528,-1733.8076438903809,-1145.1531269836426
890.0,1146.4336628311537,-2019.4934512488849,-359.1249127243822,-1097.1707851867675,-1742.3938075256347,-1132.2167343215942
900.0,1146.0111548977504,-2025.6371836649234,-343.7609953414601,-1102.871787612915,-1750.9141317443848,-1119.2375584564209
910.0,1145.5451718917395,-2031.7046224123847,-328.3841338476797,-1108.53126379776,-1759.368529083252,-1106.2162397079467
920.0,1145.0358894276383,-2037.695809873216,-312.9949513811562,-1114.1491496772767,-1767.7569177398682,-1093.1534170913696
930.0,1144.4834851930625,-2043.610793956384,-297.594067553721,-1119.72538482666,-1776.079221557617,-1080.0497282180786
940.0,1143.8881388918653,-2049.449628024475,-282.1820984240047,-1125.2599124412536,-1784.335369949341,-1066.905809234619
950.0,1143.2500322053063,-2055.212370826708,-266.759656398595,-1130.752679283142,-1792.5252978820802,-1053.7222947082519
960.0,1142.5693487186193,-2060.8990864219168,-251.32735020372655,-1136.2036356697083,-1800.6489457855225,-1040.4998175582887
970.0,1141.8462739065085,-2066.509844126144,-235.88578484269405,-1141.6127354278565,-1808.7062595367431,-1027.2390090026856
980.0,1141.0809950566277,-2072.044718430141,-220.43556152670226,-1146.9799358711243,-1816.6971903839112,-1013.9404984512329
990.0,1140.2737012307057,-2077.503788922538,-204.97727761563436,-1152.3051977577209,-1824.6216949005127,-1000.6049134216308
1000.0,1139.4245832190595,-2082.8871402480945,-189.51152660777362,-1157.5884852676393,-1832.479734939575,-987.2328795089721
1010.0,1138.5338334610933,-2088.1948619984228,-174.03889806269063,-1162.8297659645082,-1840.2712775421141,-973.8250202636718
1020.0,1137.60164606952,-2093.427048675153,-158.55997756818076,-1168.029010749817,-1847.9962949523926,-960.3819571609497
1030.0,1136.6282166827284,-2098.5837995838333,-143.07534670708725,-1173.1861938476563,-1855.654764465332,-946.904309501648
1040.0,1135.6137425077459,-2103.665218805785,-127.58558299145115,-1178.3012927589416,-1863.2466684722901,-933.3926943588257
1050.0,1134.5584222263317,-2108.6714150947746,-112.0912598533606,-1183.3742882270813,-1870.7719943389893,-919.8477265167236
1060.0,1133.4624559609886,-2113.6025018034684,-96.59294659982075,-1188.4051641960143,-1878.2307343597413,-906.2700184020996
1070.0,1132.326045182622,-2118.458596822665,-81.0912083645924,-1193.3939077949524,-1885.6228856811524,-892.6601800003052
1080.0,1131.1493927727056,-2123.2398225192132,-65.58660608963878,-1198.340509273529,-1892.9484503173828,-879.0188188400268
1090.0,1129.932702855965,-2127.946305637453,-50.079696484893674,-1203.2449619865417,-1900.2074349975585,-865.3465398864746
1100.0,1128.6761808379936,-2132.5781772573077,-34.57103199512116,-1208.1072623519897,-1907.3998511810303,-851.6439455108642
1110.0,1127.3800333145252,-2137.1355726908846,-19.061160805031076,-1212.9274098091125,-1914.5257149353026,-837.9116354446411
1120.0,1126.0444680497583,-2141.6186314354545,-3.5506267411931187,-1217.7054067878723,-1921.5850469360353,-824.1502066726684
1130.0,1124.6696939230656,-2146.0274970881596,11.960030665122904,-1222.4412586631775,-1928.5778723602295,-810.3602534561157
1140.0,1123.255920898611,-2150.362317291277,27.470276277419295,-1227.1349737319947,-1935.5042208709717,-796.5423672180176
1150.0,1121.8033599516364,-2154.623243632855,42.97957934033766,-1231.7865631599427,-1942.36412651062,-782.6971365127564
1160.0,1120.312223050375,-2158.810431581617,58.487413489607626,-1236.3960409431459,-1949.1576276550293,-768.8251469955444
1170.0,1118.7827231242659,-2162.924040454826,73.99325680937292,-1240.9634238929748,-1955.884766998291,-754.9269813537597
1180.0,1117.215073980085,-2166.964233290334,89.49659180668345,-1245.4887315711976,-1962.5455914154052,-741.0032192764282
1190.0,1115.609490290409,-2170.931176800292,104.99690546152193,-1249.971986263275,-1969.1401519470214,-727.0544373931884
1200.0,1113.9661875582156,-2174.8250413223136,120.49368922987126,-1254.4132129478455,-1975.6685037536622,-713.0812092514038
1210.0,1112.2853820538069,-2178.6460007036767,135.98643905114812,-1258.812439239502,-1982.1307060089111,-699.0841052627563
1220.0,1110.5672907949843,-2182.394232275255,151.4746553701926,-1263.1696953697206,-1988.5268218841552,-685.0636926727295
1230.0,1108.8121315043763,-2186.0699167618523,166.9578431495287,-1267.4850141410827,-1994.85691847229,-671.0205355148315
1240.0,1107.0201225276155,-2189.6732381956517,182.4355118560493,-1271.7584308891296,-2001.1210666809081,-656.9551945800781
1250.0,1105.1914828792596,-2193.204383876662,197.90717550686165,-1275.9899834327698,-2007.3193412628175,-642.8682273788452
1260.0,1103.3264321343866,-2196.663544298718,213.37235265777224,-1280.1797120628357,-2013.4518206939697,-628.7601881027222
1270.0,1101.425190395674,-2200.0509130575724,228.8305663870182,-1284.3276594810486,-2019.518587097168,-614.631627609253
1280.0,1099.4879783108565,-2203.3666868226946,244.28134434283024,-1288.4338707733154,-2025.5197262573242,-600.4830933761597
1290.0,1097.515016963294,-2206.611065220484,259.7242187053781,-1292.498393360138,-2031.4553274688722,-586.3151294784545
1300.0,1095.5065278874101,-2209.784250811525,275.15872623449064,-1296.5212769775392,-2037.3254835510254,-572.1282765426636
1310.0,1093.4627330089118,-2212.88644899614,290.5844082206851,-1300.5025736198425,-2043.1302907409668,-557.9230717544556
1320.0,1091.3838546502798,-2215.9178679810398,306.0008105269924,-1304.4423375167846,-2048.869848693848,-543.7000488128662
1330.0,1089.2701154165538,-2218.878718661373,321.40748356508306,-1308.340625087738,-2054.5442603302004,-529.4597378921509
1340.0,1087.1217382299792,-2221.769214602396,336.80398228625864,-1312.1974949073792,-2060.153631851196,-515.2026656570434
1350.0,1084.9389462791746,-2224.5895719555997,352.18986620092403,-1316.0130076675416,-2065.6980726623533,-500.9293552093506
1360.0,1082.7219629881026,-2227.3400094081235,367.56469937451993,-1319.7872261428834,-2071.177695327759,-486.64032607269286
1370.0,1080.4710119472304,-2230.0207480776094,382.9280503941212,-1323.520215145111,-2076.592615447998,-472.3360941772461
1380.0,1078.1863169509152,-2232.632011517276,398.27949239246607,-1327.2120415000916,-2081.9429517059325,-458.0171718521118
1390.0,1075.8681018997893,-2235.1740255926698,413.6186030170212,-1330.8627740020752,-2087.2288257141113,-443.68406779479983
1400.0,1073.5165908078247,-2237.647018452203,428.9449644433685,-1334.4724833793641,-2092.4503620147707,-429.3372870559692
1410.0,1071.132007748159,-2240.0512204537476,444.25816333957766,-1338.0412422599793,-2097.607687988281,-414.9773310394287
1420.0,1068.7145768692558,-2242.3868641178155,459.55779090058377,-1341.5691251296996,-2102.7009338531493,-400.6046974639893
1430.0,1066.2645222873018,-2244.654184035072,474.8434427752696,-1345.0562083015443,-2107.730232513428,-386.21988037872313
1440.0,1063.7820681611763,-2246.853416871753,490.11471911614467,-1348.5025698890686,-2112.69571963501,-371.82337014007567
1450.0,1061.2674385466476,-2248.9848012255666,505.3712245308082,-1351.9082897529602,-2117.5975334472655,-357.4156533813477
1460.0,1058.7208574716506,-2251.048577636996,520.6125680835787,-1355.2734494781494,-2122.435814804077,-342.9972130355835
1470.0,1056.1425488396455,-2253.044988491699,535.8383632493928,-1358.5981323356627,-2127.210707046509,-328.5685283279419
1480.0,1053.532736449718,-2254.974277987208,551.0482279540769,-1361.8824232444763,-2131.9223560180662,-314.13007473754885
1490.0,1050.8916439408565,-2256.8366920721655,566.2417845319912,-1365.1264087524414,-2136.5709099731444,-299.68232400512693
1500.0,1048.219494778873,-2258.6324783739014,581.4186596875347,-1368.3301769828797,-2141.156519515991,-285.2257441482544
1510.0,1045.5165122268602,-2260.3618861617297,596.5784845041092,-1371.4938176078797,-2145.6793375701905,-270.76079943847657
1520.0,1042.7829193025789,-2262.025166284722,611.7208944287312,-1374.6174218292235,-2150.139519302368,-256.2879503860474
1530.0,1040.0189388278013,-2263.622571133369,626.8455292554121,-1377.7010823173523,-2154.537222137451,-241.80765376281738
1540.0,1037.2247932914559,-2265.154354552933,641.9520330680634,-1380.7448932037353,-2158.8726055908205,-227.3203625946045
1550.0,1034.400704920857,-2266.620771828644,657.0400542840348,-1383.74895003891,-2163.1458313293456,-212.82652613830567
1560.0,1031.5468956378413,-2268.0220796218714,672.1092455761034,-1386.7133497543334,-2167.357063079834,-198.32658992767335
1570.0,1028.663586963515,-2269.3585358920136,687.1592638878452,-1389.6381906471252,-2171.5064665222167,-183.82099571228028
1580.0,1025.7510001297735,-2270.6303999019838,702.1897704052634,-1392.523572330475,-2175.5942093658446,-169.31018151855469
1590.0,1022.8093559269528,-2271.8379321054476,717.2004305217635,-1395.3695957107543,-2179.620461166382,-154.7945816116333
1600.0,1019.8388747857498,-2272.9813941534517,732.1909138325699,-1398.1763629570007,-2183.5853933868407,-140.27462652587892
