sat1Name,LLO-43
sat1Smaj,3416.853
sat1Ecc,0.3567866304134239
sat1Inc,90.06679555591106
sat1RAAN,237.84258011792446
sat1ArgPer,293.2579191084193
sat1TrAnom,0
Time[EpSec],xF[km],yF[km],zF[km],xI[km],yI[km],zI[km]
0.0,971.3224962817535,-1184.505814355164,-1575.9606325901052,-459.9087614707947,-735.9510609588623,-2019.1664860763549
10.0,975.2972172191406,-1196.7474863812845,-1564.2390212125597,-468.41215591812136,-749.4613520965576,-2012.2501478347779
20.0,979.2262459535808,-1208.9340994791462,-1552.4451676044619,-476.89391750335693,-762.9370305633545,-2005.240877029419
30.0,983.1094073335818,-1221.0650925394,-1540.5796217581044,-485.35365614318846,-776.3774766235351,-1998.139004234314
40.0,986.94653062839,-1233.13990988891,-1528.6429404180044,-493.79098394012453,-789.7820740356445,-1990.9448688201903
50.0,990.7374495441562,-1245.1580013794623,-1516.6356869470685,-502.2055152511597,-803.1502101593018,-1983.6588188552857
60.0,994.4820022699143,-1257.118822506685,-1504.558431250169,-510.5968667678833,-816.4812760772705,-1976.2812110748291
70.0,998.1800315243097,-1269.0218345197784,-1492.4117496086792,-518.9646575889587,-829.7746667480469,-1968.8124107666015
80.0,1001.8313845307107,-1280.8665044801783,-1480.1962246324567,-527.308509273529,-843.0297810363769,-1961.2527917327882
90.0,1005.4359130909733,-1292.652305411757,-1467.9124450691552,-535.6280459480286,-856.2460219116211,-1953.6027361679078
100.0,1008.9934735972553,-1304.378716365675,-1455.561005725056,-543.9228943405151,-869.4227965240478,-1945.8626346054077
110.0,1012.5039270317512,-1316.0452225099098,-1443.1425073296025,-552.1926838684082,-882.5595162963867,-1938.0328858108521
120.0,1015.9671390037006,-1327.6513152377615,-1430.6575564309294,-560.437046710968,-895.6555970458984,-1930.1138967208863
130.0,1019.3829797880699,-1339.196492255173,-1418.1067652295615,-568.6556178627014,-908.710459121704,-1922.106082321167
140.0,1022.7513243106256,-1350.6802576556513,-1405.490751483108,-576.848035205841,-921.7235274658203,-1914.0098655700683
150.0,1026.0720521893643,-1362.1021220192445,-1392.8101383537467,-585.01393957901,-934.6942317504883,-1905.82567729187
160.0,1029.3450477171607,-1373.4616024660518,-1380.0655543262676,-593.1529748268127,-947.6220064239502,-1897.5539561080932
170.0,1032.5701999133678,-1384.7582227759613,-1367.2576329813714,-601.2647878837586,-960.5062908935547,-1889.1951482696534
180.0,1035.747402501029,-1395.9915134358944,-1354.3870129747866,-609.3490288200378,-973.3465295410156,-1880.7497076416016
190.0,1038.8765539437823,-1407.1610117188288,-1341.4543378086653,-617.4053508987427,-986.142171875,-1872.2180955200195
200.0,1041.957557444337,-1418.2662617771114,-1328.4602557515293,-625.4334106521607,-998.8926726074219,-1863.6007805786132
210.0,1044.9903209212923,-1429.3068146699516,-1315.4054196661248,-633.4328679199218,-1011.5974917144775,-1854.8982387084961
220.0,1047.9747570516945,-1440.2822284659337,-1302.2904869050265,-641.4033859176636,-1024.2560945587159,-1846.1109529571534
230.0,1050.9107832820966,-1451.1920683078624,-1289.1161191348237,-649.3446312904358,-1036.8679519958496,-1837.239413383484
240.0,1053.7983217744143,-1462.0359064348527,-1275.8829822237233,-657.2562741508484,-1049.4325403900145,-1828.2841169433593
250.0,1056.6372994805024,-1472.8133222964482,-1262.5917460842982,-665.137988155365,-1061.949341781616,-1819.245567390442
260.0,1059.427648063068,-1483.5239025613066,-1249.243084538779,-672.9894505386353,-1074.4178438873291,-1810.1242751312257
270.0,1062.1693039289373,-1494.1672411862958,-1235.837675185552,-680.8103421669007,-1086.8375402069091,-1800.9207571258544
280.0,1064.8622082675563,-1504.742939488235,-1222.3761992119412,-688.6003475799561,-1099.2079301605224,-1791.635536743164
290.0,1067.5063069578632,-1515.2506061651693,-1208.859341312813,-696.3591550559997,-1111.5285190582276,-1782.2691436614991
300.0,1070.1015506100682,-1525.6898573371614,-1195.2877895097406,-704.0864566268921,-1123.7988182220458,-1772.822113723755
310.0,1072.6478945765093,-1536.0603166303708,-1181.6622349959398,-711.7819481506348,-1136.0183450927734,-1763.2949888153075
320.0,1075.1452988626843,-1546.3616151458366,-1167.9833720405747,-719.4453293266297,-1148.186623184204,-1753.6883167419433
330.0,1077.5937282206437,-1556.5933915825674,-1154.2518977719806,-727.0763037605286,-1160.303182296753,-1744.0026510849
340.0,1079.9931520360224,-1566.7552922036955,-1140.4685121074674,-734.6745789909363,-1172.3675584411621,-1734.238551094055
350.0,1082.3435443730098,-1576.846970887768,-1126.6339175524033,-742.2398665122986,-1184.37929397583,-1724.39658152771
360.0,1084.6448839425175,-1586.8680891844394,-1112.7488190826027,-749.7718818435669,-1196.337937652588,-1714.4773125457764
370.0,1086.8971540726782,-1596.8183162931784,-1098.8139239775614,-757.2703445281983,-1208.2430446472167,-1704.481319541931
380.0,1089.1003426941525,-1606.697329123856,-1084.829941711366,-764.7349781913757,-1220.0941766204835,-1694.409183052063
390.0,1091.2544423124898,-1616.504812299003,-1070.7975837797103,-772.165510559082,-1231.890901763916,-1684.2614885864257
400.0,1093.3594500333531,-1626.2404581883775,-1056.7175635516928,-779.5616734809876,-1243.6327948913574,-1674.0388265075683
410.0,1095.4153674493637,-1635.9039669009198,-1042.5905961522437,-786.9232029800415,-1255.3194373931885,-1663.741791885376
420.0,1097.422200687873,-1645.4950463158348,-1028.4173982815346,-794.2498392562866,-1266.9504173583985,-1653.370984352112
430.0,1099.379960367699,-1655.0134120822142,-1014.1986881227482,-801.5413267135621,-1278.525329574585,-1642.927008003235
440.0,1101.2886615338223,-1664.458787633134,-999.9351851460638,-808.7974140090943,-1290.0437755584717,-1632.4104711990356
450.0,1103.1483237017317,-1673.8309041889645,-985.6276100095404,-816.0178540306091,-1301.5053636322023,-1621.8219864883422
460.0,1104.9589707398522,-1683.1295007485226,-971.2766843862073,-823.2024039535522,-1312.9097088928222,-1611.1621704101562
470.0,1106.720630900547,-1692.354324109921,-956.8831308502087,-830.3508252487183,-1324.2564332885743,-1600.4316434020996
480.0,1108.4333367643192,-1701.505128839199,-942.4476727287158,-837.462883682251,-1335.5451656188966,-1589.6310296401978
490.0,1110.097125231669,-1710.5816773165675,-927.9710339449588,-844.5383493614197,-1346.7755416107177,-1578.7609569015503
500.0,1111.7120374272577,-1719.5837396486884,-913.4539389066828,-851.5769967155456,-1357.9472038421632,-1567.8220564117432
510.0,1113.2781187315302,-1728.5110937265595,-898.8971123659893,-858.5786045303345,-1369.0598018493652,-1556.8149627380371
520.0,1114.7954186982643,-1737.3635251848884,-884.3012792827266,-865.5429559555054,-1380.1129920959472,-1545.7403136291505
530.0,1116.2639910421706,-1746.1408273963282,-869.6671646729822,-872.4698385086059,-1391.1064380187988,-1534.5987498703003
540.0,1117.6838935755193,-1754.8428014242936,-854.9954934937956,-879.3590440750122,-1402.0398099975587,-1523.390915145874
550.0,1119.0551882157524,-1763.4692560653698,-840.2869905218365,-886.2103689346313,-1412.9127854309081,-1512.1174559402466
560.0,1120.377940874201,-1772.020007751077,-825.5423801924292,-893.023613746643,-1423.7250486602784,-1500.7790213317871
570.0,1121.6522214523927,-1780.494880573059,-810.7623865111823,-899.798583568573,-1434.476291015625,-1489.3762629165649
580.0,1122.878103842603,-1788.8937062667235,-795.9477328758292,-906.5350878448486,-1445.166210876465,-1477.9098346405028
590.0,1124.0556657771162,-1797.2163241216167,-781.0991420085503,-913.2329404144288,-1455.7945135345458,-1466.3803926696778
600.0,1125.1849889013452,-1805.462581015083,-766.2173357909569,-919.8919595031738,-1466.3609113311768,-1454.7885952682495
610.0,1126.2661586290958,-1813.632331338001,-751.3030351564873,-926.5119677352906,-1476.865123550415,-1443.1351026382447
620.0,1127.2992641875976,-1821.725436993415,-736.3569599431642,-933.0927921104432,-1487.3068765106202,-1431.4205767974854
630.0,1128.2843984736646,-1829.7417673140703,-721.3798288469918,-939.6342640151978,-1497.685903427124,-1419.6456814727783
640.0,1129.2216580967615,-1837.6811990687304,-706.3723592065794,-946.1362192039489,-1508.0019445343019,-1407.8110819168091
650.0,1130.111143289144,-1845.5436164058588,-691.3352669476145,-952.5984977989197,-1518.2547470092773,-1395.9174448165893
660.0,1130.9529578214874,-1853.3289107910282,-676.2692664863356,-959.0209442863464,-1528.4440649108888,-1383.9654381637574
670.0,1131.7472090317935,-1861.0369809790802,-661.175070553092,-965.4034074821473,-1538.5696592559814,-1371.9557310943603
680.0,1132.494007723303,-1868.6677329868537,-646.0533901235349,-971.7457405509949,-1548.631297958374,-1359.888993789673
690.0,1133.1934681356317,-1876.221080010152,-630.9049343111081,-978.0478009719849,-1558.6287557983399,-1347.7658973464966
700.0,1133.8457078724512,-1883.6969423927244,-615.7304102460943,-984.3094505310058,-1568.5618144073487,-1335.5871136398316
710.0,1134.4508478631049,-1891.0952475713866,-600.5305229815615,-990.5305553169251,-1578.4302622375487,-1323.353315208435
720.0,1135.0090123264863,-1898.4159300206513,-585.305975374448,-996.7109856758118,-1588.2338945617676,-1311.065175125122
730.0,1135.5203286980236,-1905.6589312182623,-570.0574679967633,-1002.8506162338257,-1597.9725134277344,-1298.7233668823242
740.0,1135.9849275844283,-1912.8241995434164,-554.7856990344499,-1008.9493258361816,-1607.6459276123046,-1286.32856426239
750.0,1136.4029426994518,-1919.9116902683354,-539.4913642012058,-1015.0069975624084,-1617.2539526062012,-1273.8814412384033
760.0,1136.7745108358586,-1926.921365472918,-524.175156631053,-1021.0235186882019,-1626.796410583496,-1261.3826718444825
770.0,1137.0997717950447,-1933.8531939865727,-508.8377667564722,-1026.9987806625365,-1636.2731303710937,-1248.8329300308228
780.0,1137.3788683576402,-1940.7071513570104,-493.47988228494023,-1032.9326791000367,-1645.683947418213,-1236.2328896255492
790.0,1137.611946168418,-1947.483219723639,-478.10218804440586,-1038.825113735199,-1655.028703704834,-1223.583224128723
800.0,1137.799153741042,-1954.1813878116752,-462.7053659423002,-1044.6759884185792,-1664.307247756958,-1210.8846066741944
810.0,1137.9406424244266,-1960.8016508595704,-447.29009484530496,-1050.485211074829,-1673.5194346313476,-1198.137709892273
820.0,1138.0365662582735,-1967.3440105236486,-431.8570505260997,-1056.2526936950683,-1682.6651257781982,-1185.343205795288
830.0,1138.0870820075293,-1973.808474830392,-416.4069055554409,-1061.978352279663,-1691.744189086914,-1172.5017656784057
840.0,1138.0923490552432,-1980.195058115831,-400.94032923810823,-1067.6621068496704,-1700.7564987945557,-1159.6140600128174
850.0,1138.0525293765613,-1986.5037809452058,-385.4579875482522,-1073.3038813858032,-1709.7019354553222,-1146.6807583618165
860.0,1137.967787468505,-1992.7346700319329,-369.9605430332725,-1078.903603805542,-1718.5803858795166,-1133.7025292510987
870.0,1137.8382903191282,-1998.8877582145683,-354.44865472936107,-1084.4612059555054,-1727.3917431335449,-1120.6800400772095
880.0,1137.6642073061555,-2004.963084312571,-338.92297813067944,-1089.9766235427855,-1736.1359064025878,-1107.6139570159912
890.0,1137.4457101996193,-2010.9606931177132,-323.384165100242,-1095.449796131134,-1744.812781021118,-1094.5049449386597
900.0,1137.182973056884,-2016.8806352870058,-307.8328637985355,-1100.8806671066284,-1753.422278366089,-1081.353667289734
910.0,1136.8761722366737,-2022.7229672872602,-292.2697186083867,-1106.2691836204528,-1761.9643158721924,-1068.1607860107422
920.0,1136.5254862632285,-2028.4877513079823,-276.6953701027031,-1111.6152965888978,-1770.4388168945313,-1054.9269614486695
930.0,1136.13109579945,-2034.1750551804669,-261.11045497268856,-1116.918960636139,-1778.8457106781007,-1041.6528522644044
940.0,1135.6931836613853,-2039.7849523389013,-245.5156059520801,-1122.1801340675354,-1787.1849323730469,-1028.3391153564453
950.0,1135.211934665533,-2045.3175217015541,-229.91145177739241,-1127.3987788314819,-1795.45642288208,-1014.9864057540893
960.0,1134.6875356272212,-2050.7728476063903,-214.2986171240298,-1132.5748604812622,-1803.6601288452148,-1001.5953765411377
970.0,1134.120175302336,-2056.1510197543535,-198.67772258780292,-1137.708348148346,-1811.7960025787354,-988.1666788101196
980.0,1133.5100443326123,-2061.452133112236,-183.04938456231588,-1142.7992144966126,-1819.864002029419,-974.7009615097046
990.0,1132.8573352069334,-2066.6762878426907,-167.41421526885497,-1147.8474356842041,-1827.864090698242,-961.1988714447021
1000.0,1132.1622421724576,-2071.8235892284947,-151.7728226532879,-1152.8529913368225,-1835.7962375793456,-947.6610531387329
1010.0,1131.4249612302524,-2076.8941475941947,-136.12581038348736,-1157.8158644943237,-1843.6604171142578,-934.0881488113404
1020.0,1130.645690036215,-2081.8880782088895,-120.47377776500164,-1162.7360415802002,-1851.456609100342,-920.480798248291
1030.0,1129.824627896024,-2086.8055012519258,-104.81731973340793,-1167.6135123710633,-1859.1847986755372,-906.839638786316
1040.0,1128.961975679228,-2091.646541686387,-89.1570267975945,-1172.4482699356079,-1866.8449762115479,-893.1653052062989
1050.0,1128.0579357780744,-2096.4113292154,-73.4934850151476,-1177.2403106231689,-1874.4371372680664,-879.4584296875
1060.0,1127.1127120896813,-2101.0999981827367,-57.82727594786068,-1181.9896339912414,-1881.9612825469972,-865.7196417388916
1070.0,1126.126509908066,-2105.7126875160034,-42.158976626202694,-1186.6962428016664,-1889.4174178009034,-851.9495681228638
1080.0,1125.0995359137617,-2110.2495406144926,-26.489159517621506,-1191.3601429519654,-1896.8055537719727,-838.1488327941895
1090.0,1124.0319981231216,-2114.7107053108657,-10.81839252339769,-1195.9813434486389,-1904.1257061462402,-824.3180568771362
1100.0,1122.9241058435139,-2119.0963337675807,4.8527611028135285,-1200.5598563575745,-1911.3778954925538,-810.4578585510254
1110.0,1121.7760695816787,-2123.4065823914225,20.523742729035906,-1205.0956967773438,-1918.562147140503,-796.5688530273437
1120.0,1120.5881010793796,-2127.641611791959,36.19399839771679,-1209.5888827819824,-1925.6784912109374,-782.6516525039673
1130.0,1119.3604131640736,-2131.801586661098,51.86297884587303,-1214.039435398102,-1932.72696244812,-768.7068660736084
1140.0,1118.0932198202374,-2135.886675738919,67.53013952830969,-1218.4473785438538,-1939.7076002655028,-754.7350997161865
1150.0,1116.7867360150847,-2139.8970516826366,83.19494061195303,-1222.8127390022278,-1946.6204485473634,-740.7369562225342
1160.0,1115.4411777662442,-2143.832891045048,98.85684703341138,-1227.1355463752748,-1953.4655557098388,-726.71303515625
1170.0,1114.0567620303914,-2147.6943741623795,114.51532850215095,-1231.4158330421449,-1960.2429745635986,-712.6639327926636
1180.0,1112.633706662132,-2151.4816850753687,130.16985948455473,-1235.6536341133117,-1966.9527622375488,-698.5902421035767
1190.0,1111.1722304240775,-2155.1950114960773,145.81991927263442,-1239.8489874038696,-1973.5949801940917,-684.4925526885986
1200.0,1109.6725528691456,-2158.8345446724597,161.46499194697196,-1244.0019333724977,-1980.1696940612792,-670.3714507446289
1210.0,1108.134894348498,-2162.4004793615877,177.10456640451878,-1248.1125151023864,-1986.6769736328124,-656.2275190353394
1220.0,1106.5594759536618,-2165.8930137252305,192.73813639866432,-1252.1807782363892,-1993.1168927917481,-642.0613368148804
1230.0,1104.9465194711286,-2169.312349267242,208.36520048269804,-1256.206770954132,-1999.4895294189453,-627.8734798507691
1240.0,1103.2962473617122,-2172.658690765009,223.98526208748714,-1260.1905439186096,-2005.7949653778076,-613.6645203323365
1250.0,1101.6088826763823,-2175.9322461781076,239.597829461506,-1264.1321502494811,-2012.0332863769531,-599.4350268783569
1260.0,1099.8846490656072,-2179.1332265879987,255.2024157189196,-1268.031645462036,-2018.2045819702148,-585.1855644836426
1270.0,1098.1237707097735,-2182.261846132623,270.7985388254302,-1271.88908744812,-2024.3089454650878,-570.9166944961548
1280.0,1096.3264722971135,-2185.3183219138714,286.38572160898224,-1275.7045364151002,-2030.3464738616944,-556.6289745788574
1290.0,1094.4929789630205,-2188.3028739468978,301.96349173733137,-1279.4780548667907,-2036.3172677764892,-542.3229587020874
1300.0,1092.62351626761,-2191.215725064911,317.53138173579805,-1283.2097075424194,-2042.2214313812256,-527.9991970977783
1310.0,1090.7183101847716,-2194.057100889873,333.088928994994,-1286.899561389923,-2048.0590723876953,-513.6582362442017
1320.0,1088.777586991959,-2196.8272296969626,348.6356757410468,-1290.5476855163574,-2053.830301879883,-499.30061882781985
1330.0,1086.8015733208872,-2199.5263424172485,364.17116903831015,-1294.1541511573791,-2059.535234359741,-484.92688375854493
1340.0,1084.7904960642102,-2202.154672529719,379.69496079835403,-1297.7190316352844,-2065.173987625122,-470.53756610870363
1350.0,1082.7445823553965,-2204.712455993261,395.206607755814,-1301.2424023170472,-2070.74668270874,-456.1331971130371
1360.0,1080.6640595438657,-2207.1999311863606,410.7056714640835,-1304.7243405685424,-2076.2534438323974,-441.71430415344236
1370.0,1078.5491551572336,-2209.6173388475713,426.19171829976494,-1308.164925731659,-2081.6943983459473,-427.2814107284546
1380.0,1076.4000968492157,-2211.9649219898984,441.66431942665105,-1311.5642390708924,-2087.0696766357423,-412.8350364532471
1390.0,1074.2171124047595,-2214.2429258635457,457.123050803443,-1314.922363746643,-2092.379412109375,-398.37569704437254
1400.0,1072.0004296736304,-2216.4515978625145,472.5674931901188,-1318.239384765625,-2097.623741104126,-383.9039042739868
1410.0,1069.7502765549668,-2218.591187480889,487.9972320746606,-1321.5153889503479,-2102.8028028259278,-369.4201660232544
1420.0,1067.46688096542,-2220.6619462355034,503.4118577252378,-1324.7504648971558,-2107.9167393035887,-354.9249862060547
1430.0,1065.1504708085147,-2222.6641276211194,518.8109651380898,-1327.9447029457092,-2112.9656953277586,-340.4188647994995
1440.0,1062.8012739351116,-2224.5979870273572,534.1941540357643,-1331.0981951370238,-2117.9498183746337,-325.90229781341554
1450.0,1060.4195181261018,-2226.4637816882,549.5610288346828,-1334.2110351715087,-2122.8692585601807,-311.37577730560304
1460.0,1058.0054310832343,-2228.261770635706,564.9111986540966,-1337.2833183822631,-2127.724168609619,-296.83979135894776
1470.0,1055.5592403589687,-2229.99221461885,580.2442772745688,-1340.31514169693,-2132.5147037506104,-282.29482408142087
1480.0,1053.081173325345,-2231.6553760301526,595.5598831348955,-1343.306603591919,-2137.2410216522217,-267.7413555831909
1490.0,1050.5714572186855,-2233.2515189034284,610.857639288083,-1346.2578040695191,-2141.9032824401856,-253.17986203002928
1500.0,1048.0303190393286,-2234.7809088030112,626.1371734315719,-1349.1688446197509,-2146.5016485748292,-238.61081555938722
1510.0,1045.4579855352997,-2236.2438127842847,641.3981178126592,-1352.0398281822204,-2151.036284790039,-224.03468435668944
1520.0,1042.8546832395095,-2237.640499357017,656.6401092957364,-1354.8708591079712,-2155.5073581237793,-209.4519325942993
1530.0,1040.2206383662676,-2238.9712383940728,671.8627892483801,-1357.662043132782,-2159.915037750244,-194.8630204849243
1540.0,1037.55607681689,-2240.2363011089615,687.0658035889218,-1360.4134873504638,-2164.259494995117,-180.26840423583985
1550.0,1034.86122419562,-2241.435959981595,702.2488027394201,-1363.1253001480102,-2168.540903289795,-165.66853607940675
1560.0,1032.1363056915343,-2242.5704887059105,717.4114415665024,-1365.797591217041,-2172.7594380340574,-151.06386428070067
1570.0,1029.3815461774084,-2243.6401621693362,732.553379443029,-1368.430471485138,-2176.9152766876223,-136.45483310699464
1580.0,1026.5971700939429,-2244.6452563583084,747.674280135654,-1371.024053100586,-2181.008598587036,-121.84188287353516
1590.0,1023.7834014473256,-2245.586048320599,762.7738118052639,-1373.578449394226,-2185.03958493042,-107.22544993591309
1600.0,1020.9404638451404,-2246.4628161381675,777.8516470191196,-1376.0937748451233,-2189.0084187927246,-92.60596668243409
1610.0,1018.0685803832127,-2247.275838851291,792.9074626712941,-1378.5701450691224,-2192.9152849731445,-77.98386155700683
