sat1Name,LLO-13
sat1Smaj,3416.853
sat1Ecc,0.36236193360721264
sat1Inc,90.84084752316215
sat1RAAN,238.21291503300912
sat1ArgPer,292.74517739988613
sat1TrAnom,0
Time[EpSec],xF[km],yF[km],zF[km],xI[km],yI[km],zI[km]
0.0,986.4547442690381,-1145.1680981308368,-1569.171268236999,-418.663101348877,-731.5513401489258,-2009.0682538986207
10.0,990.536069951192,-1157.5674256083178,-1557.4847981427476,-427.2435531349182,-745.2072375488282,-2002.2517490463256
20.0,994.5697808088898,-1169.9120946695118,-1545.7244945035488,-435.8037512741089,-758.8278080902099,-1995.3403266372682
30.0,998.5556922149135,-1182.201521872246,-1533.8909204735041,-444.3432915611267,-772.4124088897705,-1988.3343216171265
40.0,1002.4936242797248,-1194.4351293611955,-1521.9846463613053,-452.8617719306946,-785.9604007263183,-1981.2340782318115
50.0,1006.3834019334911,-1206.6123449787426,-1510.0062494605822,-461.35879251098635,-799.471148223877,-1974.0399499206544
60.0,1010.224854906928,-1218.732602370648,-1497.956313982165,-469.8339557266235,-812.9440199127197,-1966.75229927063
70.0,1014.0178178132644,-1230.7953411090052,-1485.8354308982964,-478.2868663635254,-826.3783884124756,-1959.3714979248048
80.0,1017.762130165362,-1242.800006811067,-1473.644197816767,-486.71713165283205,-839.7736305541993,-1951.8979264984132
90.0,1021.4576363751814,-1254.7460512008092,-1461.3832188856873,-495.1243613395691,-853.1291274414062,-1944.3319745025635
100.0,1025.1041858201193,-1266.6329322730219,-1449.0531046313245,-503.50816777420044,-866.4442646484375,-1936.6740402526855
110.0,1028.701632838906,-1278.460114340613,-1436.6544718420455,-511.8681659660339,-879.7184322814942,-1928.9245307693482
120.0,1032.2498367542269,-1290.2270681599753,-1424.1879434152356,-520.2039736785889,-892.9510251159668,-1921.0838616714477
130.0,1035.7486619313308,-1301.933271041489,-1411.6541482613552,-528.5152114906311,-906.1414427337646,-1913.1524571304321
140.0,1039.1979777143167,-1313.5782068833662,-1399.05372113581,-536.801502861023,-919.289089553833,-1905.1307497024536
150.0,1042.5976585604062,-1325.1613663466608,-1386.3873024947536,-545.0624742126465,-932.393375076294,-1897.0191802749634
160.0,1045.9475839356671,-1336.682246876698,-1373.6555383924576,-553.2977550010681,-945.4537138519287,-1888.818197944641
170.0,1049.2476384233917,-1348.1403528232324,-1360.8590802929755,-561.5069777679444,-958.4695256958008,-1880.528259902954
180.0,1052.4977116565888,-1359.535195493752,-1347.9985849640045,-569.6897782173156,-971.4402357025147,-1872.1498313293457
190.0,1055.6976984131193,-1370.8662932793056,-1335.0747143082313,-577.8457952804565,-984.3652744445801,-1863.6833852920531
200.0,1058.8474985297398,-1382.1331716896314,-1322.0881352348808,-585.9746711883545,-997.2440779724121,-1855.1294026107787
210.0,1061.9470169919518,-1393.3353634511402,-1309.0395194903933,-594.0760515098572,-1010.0760879974365,-1846.4883717498778
220.0,1064.9961638669904,-1404.4724085544065,-1295.9295435380966,-602.149585231781,-1022.8607519073487,-1837.760788696289
230.0,1067.9948543785397,-1415.54385437216,-1282.7588883812712,-610.194924823761,-1035.5975229492187,-1828.9471568450929
240.0,1070.9430088215188,-1426.549255661849,-1269.528239441234,-618.2117262763977,-1048.2858602142335,-1820.0479868621826
250.0,1073.8405526712568,-1437.48817468698,-1256.2382863617215,-626.1996491661072,-1060.9252288513183,-1811.0637965621947
260.0,1076.6874164592741,-1448.3601812299644,-1242.8897229051743,-634.158356716156,-1073.5151000213623,-1801.9951107788086
270.0,1079.4835358500325,-1459.1648526921326,-1229.4832467888343,-642.0875158538819,-1086.0549510650635,-1792.8424612579345
280.0,1082.2288516177327,-1469.9017741091775,-1216.0195594987292,-649.9867972373962,-1098.544265563965,-1783.6063864822388
290.0,1084.923309617377,-1480.5705382295678,-1202.4993661730527,-657.8558753356933,-1110.9825334014893,-1774.2874315719605
300.0,1087.5668608064027,-1491.1707455609903,-1188.923375426824,-665.6944284591675,-1123.3692508697509,-1764.8861481399535
310.0,1090.1594611964758,-1501.702004404623,-1175.2922992120498,-673.5021388206482,-1135.7039207000732,-1755.4030941543579
320.0,1092.701071871391,-1512.1639308973797,-1161.6068526354911,-681.2786925582885,-1147.9860521698,-1745.8388337860108
330.0,1095.1916589417456,-1522.5561490647751,-1147.867753846708,-689.0237798118592,-1160.2151611328125,-1736.1939373016357
340.0,1097.6311935818587,-1532.878290854936,-1134.075723843282,-696.7370947303772,-1172.3907701416015,-1726.4689809036254
350.0,1100.0196519345295,-1543.1299961536754,-1120.2314863342403,-704.4183355369568,-1184.5124084320069,-1716.6645465774536
360.0,1102.3570151406159,-1553.3109128371505,-1106.335767585794,-712.0672045631409,-1196.5796120300292,-1706.7812219696045
370.0,1104.6432693462878,-1563.4206968092617,-1092.3892962447658,-719.6834082794189,-1208.5919238433837,-1696.8196002349853
380.0,1106.8784055874157,-1573.4590119724069,-1078.3928032271592,-727.2666573295593,-1220.5488936004638,-1686.7802798919677
390.0,1109.062419860885,-1583.4255303219682,-1064.3470215063603,-734.8166665763855,-1232.4500780334472,-1676.6638646697998
400.0,1111.1953130393351,-1593.3199319179132,-1050.2526860172106,-742.333155128479,-1244.2950408325196,-1666.4709633865357
410.0,1113.2770908661537,-1603.1419049104002,-1036.1105334443316,-749.8158463630676,-1256.0833527374268,-1656.2021897583008
420.0,1115.307763907511,-1612.8911455495997,-1021.9213021367917,-757.2644679603577,-1267.8145915374755,-1645.8581623077393
430.0,1117.2873475460926,-1622.567358214302,-1007.6857318891429,-764.6787519378662,-1279.488342163086,-1635.4395041656494
440.0,1119.2158619598335,-1632.1702554103388,-993.4045638167224,-772.0584346618652,-1291.1041967163087,-1624.9468429489136
450.0,1121.093332030246,-1641.6995577560317,-979.0785402325916,-779.4032568817139,-1302.6617544403075,-1614.3808106155395
460.0,1122.9197873725063,-1651.1549940195912,-964.7084044384097,-786.7129637489319,-1314.1606218414306,-1603.7420432891845
470.0,1124.6952622491888,-1660.5363010768815,-950.2949006486698,-793.9873048324584,-1325.600412628174,-1593.0311811523438
480.0,1126.41979558068,-1669.84322395981,-935.8387737600966,-801.2260341529847,-1336.980747833252,-1582.248868247986
490.0,1128.0934308661124,-1679.075515792833,-921.3407692693877,-808.4289101715087,-1348.3012557525635,-1571.3957523651122
500.0,1129.7162161546369,-1688.2329378263953,-906.8016330937701,-815.5956958389282,-1359.5615720062256,-1560.4724848709106
510.0,1131.2882040382797,-1697.3152594126589,-892.2221114468676,-822.7261585807801,-1370.761339569092,-1549.4797205886841
520.0,1132.8094515381904,-1706.3222579720077,-877.6029506862723,-829.8200703277588,-1381.9002087249755,-1538.418117614746
530.0,1134.2800201451148,-1715.253719020091,-862.9448971528701,-836.8772075195312,-1392.977837173462,-1527.2883371887208
540.0,1135.699975705365,-1724.1094360895227,-848.2486970717733,-843.8973511047363,-1403.9938899383544,-1516.091043548584
550.0,1137.0693884025814,-1732.8892107589713,-833.5150963604027,-850.8802865715027,-1414.9480394439697,-1504.826903755188
560.0,1138.3883327563658,-1741.5928526208056,-818.7448405384614,-857.8258039283752,-1425.8399655303956,-1493.496587600708
570.0,1139.656887495778,-1750.2201792232952,-803.9386745604892,-864.733697719574,-1436.669355392456,-1482.100767402649
580.0,1140.8751355448114,-1758.7710160690583,-789.09734270535,-871.6037670326233,-1447.4359036102294,-1470.6401178970336
590.0,1142.0431639920416,-1767.2451965713155,-774.2215884156053,-878.4358154830933,-1458.1393121643066,-1459.1153160705567
600.0,1143.161064025211,-1775.642562043083,-759.3121541899476,-885.2296512413025,-1468.7792904205323,-1447.5270410385133
610.0,1144.2289308701506,-1783.962961611153,-744.3697814335314,-891.9850869903564,-1479.3555550994872,-1435.8759738693238
620.0,1145.246863774908,-1792.2062522543376,-729.3952103550249,-898.7019399681092,-1489.8678303222657,-1424.1627974929809
630.0,1146.2149658850315,-1800.3722986719943,-714.3891798177452,-905.3800319290161,-1500.315847503662,-1412.3881964950563
640.0,1147.1333443076462,-1808.4609733282537,-699.3524272155513,-912.0191891441345,-1510.6993454742433,-1400.5528570327758
650.0,1148.002109919038,-1816.472156339696,-684.2856883744921,-918.6192424087525,-1521.0180703125,-1388.657466659546
660.0,1148.8213774414621,-1824.4057354850434,-669.1896974010594,-925.180027015686,-1531.271775466919,-1376.7027142105103
670.0,1149.5912652753577,-1832.2616060927471,-654.0651865923633,-931.7013827514648,-1541.4602216033936,-1364.689289642334
680.0,1150.311895527077,-1840.0396710615248,-638.9128862956074,-938.1831538887023,-1551.5831766967774,-1352.6178839187621
690.0,1150.9833939234882,-1847.7398407606547,-623.7335248235328,-944.6251891670227,-1561.640415939331,-1340.4891888809204
700.0,1151.6058897420369,-1855.362032994978,-608.5278282924637,-951.0273417816162,-1571.6317217407227,-1328.3038970718385
710.0,1152.1795157676058,-1862.906172925606,-593.2965205685013,-957.3894693603515,-1581.5568836669922,-1316.0627016525268
720.0,1152.7044082516877,-1870.3721930649726,-578.0403231219041,-963.7114339637757,-1591.4156984710694,-1303.7662962570191
730.0,1153.180706816177,-1877.7600331560527,-562.7599549416899,-969.9931020469666,-1601.2079699859619,-1291.4153748550416
740.0,1153.6085544259113,-1885.0696401486016,-547.4561324100237,-976.234344455719,-1610.9335091400146,-1279.0106316223143
750.0,1153.9880973223533,-1892.3009681356332,-532.1295692215867,-982.4350363960266,-1620.5921339111328,-1266.5527608337402
760.0,1154.3194849667218,-1899.453978281552,-516.7809762743493,-988.595057422638,-1630.183669281006,-1254.0424567260743
770.0,1154.6028699829778,-1906.5286387594062,-501.41106156909945,-994.7142914047241,-1639.7079472045898,-1241.4804133758546
780.0,1154.8384080747978,-1913.5249246760964,-486.0205301401308,-1000.7926265106202,-1649.1648065338136,-1228.8673245925904
790.0,1155.0262580136925,-1920.4428180374928,-470.61008391010984,-1006.8299551849366,-1658.5540930480956,-1216.2038837738037
800.0,1155.1665815365059,-1927.2823076305344,-455.1804216458325,-1012.8261741065979,-1667.8756593322753,-1203.490783805847
810.0,1155.2595433087174,-1934.043388998624,-439.73223885244715,-1018.7811841888428,-1677.1293647766113,-1190.728716949463
820.0,1155.3053108623615,-1940.7260643475756,-424.26622769199787,-1024.6948905296326,-1686.3150755157471,-1177.918374725342
830.0,1155.3040545232934,-1947.3303424721084,-408.7830769013987,-1030.5672023887635,-1695.4326643676757,-1165.0604477996826
840.0,1155.2559473630793,-1953.8562386905717,-393.2834716846801,-1036.398033164978,-1704.4820108032227,-1152.1556258544922
850.0,1155.161165142388,-1960.3037747824858,-377.76809368753385,-1042.187300365448,-1713.4630008850097,-1139.2045975341796
860.0,1155.0198862404595,-1966.6729788748162,-362.237620859445,-1047.9349255561829,-1722.3755272064209,-1126.2080502700805
870.0,1154.8322916245904,-1972.9638854248633,-346.69272741727895,-1053.6408343582154,-1731.2194888763427,-1113.1666702346802
880.0,1154.5985647459747,-1979.176535095281,-331.13408375306557,-1059.3049563980103,-1739.9947914123536,-1100.0811421966553
890.0,1154.3188914954553,-1985.310974677131,-315.56235640166074,-1064.9272252693177,-1748.7013466796875,-1086.952149459839
900.0,1153.9934601895006,-1991.367257060334,-299.97820789545506,-1070.5075785179138,-1757.3390729217529,-1073.7803737182617
910.0,1153.622461431024,-1997.3454410939062,-284.3822967858603,-1076.0459575920106,-1765.9078945770264,-1060.5664950027465
920.0,1153.2060881292077,-2003.2455915581056,-268.77527752778155,-1081.5423078117371,-1774.407742324829,-1047.3111915740967
930.0,1152.7445353712112,-2009.0677790431278,-253.1578004269976,-1086.9965783309935,-1782.838552947998,-1034.0151398086548
940.0,1152.2380004449255,-2014.8120799020749,-237.53051157169136,-1092.4087220993042,-1791.2002693481445,-1020.6790141296386
950.0,1151.6866826711525,-2020.4785761411981,-221.89405281229202,-1097.7786958389281,-1799.4928403778076,-1007.3034869155883
960.0,1151.090783471645,-2026.0673553712,-206.24906166193122,-1103.1064599838257,-1807.7162209014894,-993.8892284164428
970.0,1150.450506195986,-2031.5785106831631,-190.59617127505783,-1108.3919786567687,-1815.8703716125488,-980.4369066543579
980.0,1149.7660561591479,-2037.0121406236733,-174.93601036724542,-1113.6352196350097,-1823.9552590789795,-966.9471873550415
990.0,1149.03764053849,-2042.3683490608119,-159.269203191187,-1118.8361542930602,-1831.970855606079,-953.4207338638306
1000.0,1148.2654682756431,-2047.6472451086643,-143.59636949450697,-1123.9947575798035,-1839.9171391448974,-939.8582070617675
1010.0,1147.4497501233836,-2052.8489430879276,-127.91812443276169,-1129.1110079727173,-1847.7940933380128,-926.2602652893066
1020.0,1146.5906985063746,-2057.9735623882048,-112.23507859084802,-1134.1848874320983,-1855.6017073364258,-912.6275642929077
1030.0,1145.6885275091533,-2063.0212274267965,-96.54783787205396,-1139.2163813705445,-1863.3399758148194,-898.9607571105958
1040.0,1144.7434527743296,-2067.9920675281132,-80.85700353611738,-1144.205478603363,-1871.0088988189698,-885.2604940490722
1050.0,1143.7556914980728,-2072.886216878277,-65.16317208828195,-1149.1521713180541,-1878.6084817810058,-871.5274225692749
1060.0,1142.7254623700242,-2077.7038144142493,-49.46693529309297,-1154.0564550132751,-1886.1387354125977,-857.7621872558594
1070.0,1141.6529854787755,-2082.445003761455,-33.768880119184146,-1158.9183284835815,-1893.599675628662,-843.965429725647
1080.0,1140.5384823224474,-2087.1099331306314,-18.06958872299944,-1163.7377937469482,-1900.991323501587,-830.1377885894775
1090.0,1139.3821756829277,-2091.6987552497376,-2.369638412183849,-1168.5148560333253,-1908.313705154419,-816.2798993682861
1100.0,1138.1842896365547,-2096.21162727389,13.330398383646505,-1173.2495237159728,-1915.5668517303466,-802.3923944473266
1110.0,1136.9450494890011,-2100.648710715366,29.02995413261396,-1177.9418082847594,-1922.7507993164063,-788.4759030227661
1120.0,1135.6646816707005,-2105.0101713328854,44.72846623073076,-1182.5917243041993,-1929.8655888214112,-774.5310510177612
1130.0,1134.3434137618365,-2109.296179079927,60.42537701479823,-1187.1992893562317,-1936.9112659759521,-760.5584610671997
1140.0,1132.981474418085,-2113.506908019845,76.12013379040326,-1191.7645240135193,-1943.8878812408448,-746.5587524490356
1150.0,1131.5790932939133,-2117.6425362150753,91.81218883927912,-1196.2874517784119,-1950.7954897003174,-732.5325410308837
1160.0,1130.13650100707,-2121.703245673154,107.50099945080956,-1200.7680990638733,-1957.6341510162354,-718.4804392166137
1170.0,1128.6539291355034,-2125.6892222752103,123.18602793018718,-1205.2064951286316,-1964.403929397583,-704.4030559234619
1180.0,1127.131610088932,-2129.600655659723,138.86674161011854,-1209.6026720466614,-1971.104893447876,-690.3009965057373
1190.0,1125.5697771356856,-2133.437739174188,154.54261286387745,-1213.9566646575927,-1977.737116165161,-676.174862739563
1200.0,1123.9686642962533,-2137.2006697640963,170.21311909430463,-1218.268510520935,-1984.3006748046876,-662.0252527770996
1210.0,1122.3285063720612,-2140.8896479493833,185.87774279423581,-1222.5382498893737,-1990.7956509094238,-647.8527610931396
1220.0,1120.649538801049,-2144.504877667682,201.53597151182638,-1226.7659256439208,-1997.2221301116942,-633.657978439331
1230.0,1118.9319977079863,-2148.046566265807,217.1872978475222,-1230.9515832672118,-2003.5802021636962,-619.441491859436
1240.0,1117.1761197997653,-2151.514924379563,232.83121949101752,-1235.0952707901001,-2009.8699608154297,-605.2038845977784
1250.0,1115.3821423741924,-2154.910165889941,248.46723922881532,-1239.1970387573242,-2016.0915037994384,-590.9457360839843
1260.0,1113.5503032130296,-2158.2325078102863,264.0948648992025,-1243.2569401817323,-2022.2449326782228,-576.6676219177247
1270.0,1111.6808405719087,-2161.482170221219,279.71360941482754,-1247.2750304946899,-2028.3303528137208,-562.3701138305664
1280.0,1109.7739931756741,-2164.6593762243997,295.32299079854886,-1251.251367515564,-2034.3478733520508,-548.0537796401977
1290.0,1107.8300001186446,-2167.7643518324453,310.92253211717383,-1255.1860114021301,-2040.2976070709228,-533.7191832580567
1300.0,1105.8491008636179,-2170.797325913542,326.5117615241969,-1259.0790246124268,-2046.17967036438,-519.3668846359253
1310.0,1103.831535154604,-2173.7585300926535,342.09021223345576,-1262.9304718589783,-2051.9941831207275,-504.997439743042
1320.0,1101.777543061392,-2176.648198725936,357.6574225100435,-1266.7404200706483,-2057.741268737793,-490.6114005813599
1330.0,1099.6873648631554,-2179.466568780176,373.21293569455935,-1270.5089383468628,-2063.421053985596,-476.20931510162353
1340.0,1097.5612410442197,-2182.2138797866805,388.75630014959717,-1274.236097919464,-2069.0336689605715,-461.7917272415161
1350.0,1095.3994122579018,-2184.890373771322,404.2870692710127,-1277.9219721183777,-2074.579247024536,-447.3591768875122
1360.0,1093.202119291002,-2187.4962951738567,419.8048014916597,-1281.566636314392,-2080.057924743652,-432.9121998443604
1370.0,1090.969603011487,-2190.031890780237,435.3090602460022,-1285.1701678962706,-2085.469841796875,-418.451327835083
1380.0,1088.7021043621517,-2192.4974096649153,450.79941396441524,-1288.7326462173462,-2090.8151409454345,-403.9770884933472
1390.0,1086.3998642952413,-2194.8931031010766,466.27543605289134,-1292.2541525611878,-2096.0939679260255,-389.49000534057615
1400.0,1084.063123767259,-2197.2192245188958,481.73670490758127,-1295.7347701034546,-2101.306471435547,-374.99059776306154
1410.0,1081.6921236895842,-2199.4760294354614,497.18280386506325,-1299.1745838775635,-2106.452803039551,-360.4793810272217
1420.0,1079.2871048993588,-2201.6637753581526,512.6133211931319,-1302.5736807136536,-2111.533117095947,-345.95686625671385
1430.0,1076.8483081432703,-2203.7827217747226,528.0278500848182,-1305.932149230957,-2116.547570739746,-331.4235604324341
1440.0,1074.3759739924092,-2205.833130015508,543.4259886200098,-1309.2500797729492,-2121.4963237304687,-316.8799663696289
1450.0,1071.8703429130599,-2207.815263275011,558.8073397798755,-1312.5275643806458,-2126.3795385284425,-302.3265827331543
1460.0,1069.331655113269,-2209.7293864768753,574.1715113860138,-1315.7646967658998,-2131.1973800811766,-287.7639040145874
1470.0,1066.7601506359028,-2211.5757662621495,589.5181161140775,-1318.9615722465514,-2135.9500158996584,-273.19242054748537
1480.0,1064.156069237183,-2213.3546709006455,604.8467714565139,-1322.1182877349854,-2140.637615905762,-258.6126184844971
1490.0,1061.5196503786735,-2215.0663702289708,620.1570996630776,-1325.2349416923523,-2145.260352371216,-244.02497983551027
1500.0,1058.8511332700207,-2216.7111356146784,635.4487278206998,-1328.3116340789795,-2149.818399963379,-229.42998239898682
1510.0,1056.1507567383653,-2218.2892398867984,650.7212877130945,-1331.3484663505553,-2154.311935562134,-214.82809983825683
1520.0,1053.4187592620467,-2219.8009572569026,665.9744158685903,-1334.3455413856507,-2158.7411382598875,-200.2198016281128
1530.0,1050.6553789647735,-2221.246563305599,681.2077535059476,-1337.3029634742736,-2163.106189331055,-185.60555310058595
1540.0,1047.860853505196,-2222.626334879707,696.4209465235939,-1340.2208382835388,-2167.4072720947265,-170.98581539916992
1550.0,1045.0354201703428,-2223.9405500754697,711.6136454594575,-1343.0992728004455,-2171.6445719604494,-156.36104553985595
1560.0,1042.1793157366149,-2225.189488149274,726.7855054819995,-1345.9383753242494,-2175.8182762756346,-141.73169635772706
1570.0,1039.2927765518243,-2226.373429520935,741.936186336269,-1348.7382554244996,-2179.928574371338,-127.09821658325195
1580.0,1036.3760384114678,-2227.4926556307496,757.0653523493826,-1351.499023891449,-2183.975657394409,-112.46105076599122
1590.0,1033.4293366147954,-2228.547448980553,772.1726723703354,-1354.2207927322388,-2187.9597183532715,-97.82063935852051
1600.0,1030.4529059191875,-2229.538093028695,787.2578197691475,-1356.903675113678,-2191.880952026367,-83.17741867828369
