sat1Name,LLO-3
sat1Smaj,3416.853
sat1Ecc,0.36000531336819497
sat1Inc,90.30665827815777
sat1RAAN,237.91015632885663
sat1ArgPer,293.39795935581327
sat1TrAnom,0
Time[EpSec],xF[km],yF[km],zF[km],xI[km],yI[km],zI[km]
0.0,975.8553932214426,-1177.9578389365663,-1562.7139339253838,-452.23461603927615,-741.42770993042,-2006.918548690796
10.0,979.817134189806,-1190.226361673595,-1550.9202312064729,-460.7691643676758,-754.9679672851563,-1999.9372784118652
20.0,983.7322866651681,-1202.4392924455692,-1539.0538152892068,-469.2821101455688,-768.4728289794922,-1992.8622437133788
30.0,987.60067355734,-1214.5960604653435,-1527.115247992693,-477.77305593109133,-781.9416645812988,-1985.6937833862305
40.0,991.4221223932138,-1226.6961005433348,-1515.1050980563284,-486.2416064987183,-795.3738473205566,-1978.4322452697754
50.0,995.1964653099172,-1238.738853203046,-1503.023941032217,-494.6873689422607,-808.7687541809082,-1971.077986175537
60.0,998.9235391238278,-1250.723764772249,-1490.8723591414193,-503.10995272064207,-822.1257660522461,-1963.6313717956543
70.0,1002.603185305273,-1262.6502874813032,-1478.6509411851398,-511.5089697570801,-835.4442677917481,-1956.0927766342163
80.0,1006.2352500484487,-1274.517879587807,-1466.360282415989,-519.8840345001221,-848.7236483917236,-1948.4625839385985
90.0,1009.8195843262112,-1286.3260054935422,-1454.0009843863015,-528.234764011383,-861.9633011322021,-1940.7411856002807
100.0,1013.3560438317305,-1298.0741357878835,-1441.5736548565785,-536.5607780189514,-875.1626235961915,-1932.9289820632935
110.0,1016.8444890459266,-1309.7617473839457,-1429.0789076590634,-544.8616990089416,-888.3210178375244,-1925.0263822479249
120.0,1020.284785288594,-1321.388323630261,-1416.5173625464565,-553.1371522941589,-901.4378905334472,-1917.033803451538
130.0,1023.6768026916175,-1332.953354354135,-1403.8896450747038,-561.3867660636902,-914.5126530303955,-1908.9516712417603
140.0,1027.0204162365467,-1344.4563359911838,-1391.196386485253,-569.6101714744568,-927.5447214813232,-1900.7804193878173
150.0,1030.3155057442918,-1355.8967716385641,-1378.4382235478427,-577.8070027084351,-940.533516921997,-1892.5204897232056
160.0,1033.5619559516606,-1367.2741711924248,-1365.6157984186584,-585.9768970451355,-953.4784654541015,-1884.172332069397
170.0,1036.759656454122,-1378.5880513708066,-1352.7297585063866,-594.1194949188232,-966.3789982604981,-1875.7364040985108
180.0,1039.9085017472876,-1389.837935817,-1339.7807563750357,-602.2344399795533,-979.234551727295,-1867.2131712799073
190.0,1043.0083912440366,-1401.0233551890856,-1326.7694495277965,-610.3213791694641,-992.0445675811768,-1858.603106704712
200.0,1046.059229268249,-1412.1438472231746,-1313.6965003191879,-618.3799627761841,-1004.8084929504395,-1849.906691017151
210.0,1049.0609250836542,-1423.1989568115973,-1300.562575794573,-626.4098444862366,-1017.5257804870605,-1841.1244122924804
220.0,1052.0133928374214,-1434.1882360381348,-1287.3683475361377,-634.4106814498901,-1030.1958883972168,-1832.2567658843993
230.0,1054.9165516396067,-1445.1112443002903,-1274.1144915411248,-642.3821343460083,-1042.8182806091309,-1823.3042543640136
240.0,1057.7703255039419,-1455.9675483222402,-1260.8016880472956,-650.3238674163819,-1055.392426803589,-1814.2673873443603
250.0,1060.574643382975,-1466.7567222363796,-1247.4306214132052,-658.2355485343933,-1067.917802520752,-1805.1466813964844
260.0,1063.3294391471418,-1477.4783476588423,-1234.001979948034,-666.1168492660522,-1080.393889251709,-1795.94265990448
270.0,1066.0346515980516,-1488.1320137096784,-1220.5164557551,-673.9674448928833,-1092.8201745147705,-1786.6558529281617
280.0,1068.6902244168837,-1498.717317075511,-1206.9747446268718,-681.7870144920349,-1105.1961518859864,-1777.2867971038818
290.0,1071.2961062191237,-1509.233862075046,-1193.3775458452071,-689.5752409629822,-1117.5213211517334,-1767.8360354919434
300.0,1073.8522505087028,-1519.6812606914784,-1179.725562048721,-697.3318110809327,-1129.7951883392334,-1758.3041174468995
310.0,1076.358615655143,-1530.059132609407,-1166.0194991085243,-705.0564155464173,-1142.017265762329,-1748.6915985031128
320.0,1078.8151649069566,-1540.3671052585776,-1152.2600659388593,-712.7487490119934,-1154.187072128296,-1738.9990402145386
330.0,1081.2218663914475,-1550.604813884726,-1138.4479743408813,-720.4085101509095,-1166.3041326293946,-1729.2270100250244
340.0,1083.5786930290867,-1560.7719015141834,-1124.5839389070475,-728.0354016685486,-1178.3679788970946,-1719.3760811462403
350.0,1085.885622603218,-1570.8680190564864,-1110.6686768162108,-735.629130355835,-1190.3781491851807,-1709.4468324127197
360.0,1088.1426376673885,-1580.8928252857631,-1096.7029076963734,-743.1894071273804,-1202.3341883392334,-1699.439848121643
370.0,1090.3497255934271,-1590.8459869044618,-1082.6873534858403,-750.715947052002,-1214.2356479187013,-1689.355717933655
380.0,1092.506878471951,-1600.7271785139735,-1068.6227382750587,-758.2084693794251,-1226.082086166382,-1679.1950366897584
390.0,1094.6140931715731,-1610.5360827027027,-1054.5097881417103,-765.6666975860596,-1237.8730681610107,-1668.958404296875
400.0,1096.6713712361654,-1620.2723899971982,-1040.3492310325557,-773.0903593940735,-1249.6081657562256,-1658.6464255752564
410.0,1098.6787189189574,-1629.9357989221926,-1026.141796596377,-780.4791868019104,-1261.2869577026368,-1648.2597101287843
420.0,1100.6361471323612,-1639.5260160068099,-1011.8882160094429,-787.8329161186218,-1272.9090296783447,-1637.7988721694946
430.0,1102.5436713838774,-1649.0427557532064,-997.5892218811302,-795.1512879753113,-1284.473974258423,-1627.2645304031373
440.0,1104.4013118174312,-1658.4857406992278,-983.2455480598193,-802.4340473594666,-1295.9813910522462,-1616.6573078765869
450.0,1106.2090931221103,-1667.8547013819375,-968.8579295231002,-809.6809436302185,-1307.4308866577148,-1605.9778318405151
460.0,1107.9670445201061,-1677.149376362625,-954.4271021858614,-816.8917305488586,-1318.8220747375487,-1595.2267335739136
470.0,1109.6751997632066,-1686.3695122174565,-939.9538027969895,-824.0661662788391,-1330.1545760498047,-1584.4046482849121
480.0,1111.3335970091252,-1695.514863512999,-925.4387687796518,-831.2040134277344,-1341.4280184020995,-1573.512214920044
490.0,1112.9422788936695,-1704.5851928310947,-910.8827380934111,-838.3050390319825,-1352.6420367736816,-1562.5500760650634
500.0,1114.5012924263578,-1713.580270741791,-896.2864490617228,-845.3690145950318,-1363.796273284912,-1551.5188777465821
510.0,1116.0106889542876,-1722.499875788736,-881.650640280107,-852.3957160949707,-1374.8903771972657,-1540.4192693328857
520.0,1117.470524146265,-1731.343794480564,-866.9760504576656,-859.3849239845276,-1385.9240049591065,-1529.2519033813476
530.0,1118.8808579286572,-1740.1118212661124,-852.2634182545805,-866.3364232063293,-1396.8968202056885,-1518.0174354629517
540.0,1120.2417544856523,-1748.803758540425,-837.5134821657044,-873.2500032043457,-1407.8084938049317,-1506.716524055481
550.0,1121.5532821535658,-1757.419416584957,-822.726980395745,-880.1254579238891,-1418.6587037963868,-1495.3498303833007
560.0,1122.815513424823,-1765.9586135683362,-807.9046507018639,-886.9625858192444,-1429.4471354522705,-1483.9180182723999
570.0,1124.0285248690814,-1774.4211754881953,-793.04723028444,-893.7611898422241,-1440.1734812316895,-1472.4217540130614
580.0,1125.1923971263486,-1782.8069362043448,-778.1554556162337,-900.5210774765014,-1450.8374408569337,-1460.8617062072753
590.0,1126.307214847759,-1791.1157373521385,-763.2300623677393,-907.2420606994629,-1461.4387212524414,-1449.2385456619263
600.0,1127.3730666106828,-1799.3474283134185,-748.2717852362358,-913.9239560050964,-1471.977036529541,-1437.552945198059
610.0,1128.3900449155196,-1807.5018661992049,-733.2813578428028,-920.566584388733,-1482.4521080169677,-1425.8055795516968
620.0,1129.3582461180063,-1815.5789158094549,-718.2595125829265,-927.1697713508606,-1492.8636642456054,-1413.9971252059936
630.0,1130.2777703981142,-1823.578449588527,-703.2069805409739,-933.7333468818665,-1503.2114409332275,-1402.1282602920533
640.0,1131.1487216682826,-1831.5003475756305,-688.1244913254535,-940.2571454658508,-1513.4951809539796,-1390.1996643981934
650.0,1131.971207570604,-1839.3444973798496,-673.0127729930904,-946.741006061554,-1523.7146343536376,-1378.2120184936523
660.0,1132.7453393853289,-1847.1107941116027,-657.8725518900711,-953.1847720985413,-1533.869558303833,-1366.166004737854
670.0,1133.4712320154042,-1854.799140347587,-642.704552574882,-959.5882914581299,-1543.9597171020507,-1354.0623063964845
680.0,1134.1490039014682,-1862.4094460855188,-627.5094976819342,-965.9514164695739,-1553.9848821411133,-1341.9016076812745
690.0,1134.7787769904228,-1869.9416286862013,-612.2881078007089,-972.2740038986205,-1563.944831893921,-1329.6845936126708
700.0,1135.3606766772152,-1877.3956128208547,-597.0411013964336,-978.5559149131775,-1573.8393518829346,-1317.4119499206543
710.0,1135.8948317339364,-1884.77133040857,-581.7691946793018,-984.7970150909424,-1583.6682346343994,-1305.0843628845214
720.0,1136.3813742655807,-1892.0687205748684,-566.4731015263081,-990.9971743888855,-1593.431279663086,-1292.702519241333
730.0,1136.8204396878202,-1899.287729592879,-551.1535333066812,-997.1562671203613,-1603.1282934875487,-1280.2671060028076
740.0,1137.2121666099506,-1906.428310802662,-535.8111988991428,-1003.2741719474792,-1612.7590894927978,-1267.7788104171752
750.0,1137.5566968212338,-1913.4904245725713,-520.446804471916,-1009.3507718467713,-1622.323487991333,-1255.2383197555541
760.0,1137.8541752564774,-1920.474038252324,-505.0610534509026,-1015.3859541053772,-1631.821316177368,-1242.646321258545
770.0,1138.1047498467894,-1927.3791260437558,-489.65464642483636,-1021.3796102790833,-1641.252407989502,-1230.0035019760132
780.0,1138.308571580504,-1934.2056690105298,-474.2282810402679,-1027.3316361732484,-1650.6166042022705,-1217.310548690796
790.0,1138.4657943882653,-1940.9536549841798,-458.7826518887839,-1033.2419318237305,-1659.9137523345946,-1204.568147758484
800.0,1138.576575046916,-1947.6230784682027,-443.31845046368136,-1039.1104014701843,-1669.1437065429689,-1191.776985015869
810.0,1138.6410732067218,-1954.2139406121319,-427.83636502458796,-1044.9369535217286,-1678.306327682495,-1178.9377456588745
820.0,1138.6594512789572,-1960.7262491189497,-412.33708057397314,-1050.7215005340577,-1687.4014831848144,-1166.0511141662598
830.0,1138.6318744062362,-1967.1600181918463,-396.82127868970275,-1056.4639591827392,-1696.4290470733642,-1153.1177741241454
840.0,1138.5585103814383,-1973.5152684334914,-381.28963754417873,-1062.1642502250672,-1705.3888998413086,-1140.1384081954957
850.0,1138.4395295948736,-1979.7920267960149,-365.74283174255305,-1067.8222984809875,-1714.280928451538,-1127.1136979446412
860.0,1138.275105014451,-1985.9903265062778,-350.18153229883467,-1073.438032787323,-1723.1050262908936,-1114.044323791504
870.0,1138.0654120800007,-1992.1102069910835,-334.6064065312387,-1079.0113859863282,-1731.8610930938721,-1100.930964866638
880.0,1137.8106286707591,-1998.1517137934359,-319.01811801024354,-1084.542294872284,-1740.5490348968506,-1087.7742989349365
890.0,1137.5109350291152,-2004.1148984928514,-303.4173264964926,-1090.0307001686097,-1749.168763961792,-1074.5750022964478
900.0,1137.1665137445907,-2009.9998186532175,-287.80468784279503,-1095.4765464935303,-1757.720198776245,-1061.3337496795655
910.0,1136.7775496611778,-2015.8065377196506,-272.18085395816036,-1100.8797823181153,-1766.2032639465333,-1048.0512141571046
920.0,1136.3442298350383,-2021.535124957026,-256.54647272127585,-1106.2403599395752,-1774.6178901672363,-1034.7280670394898
930.0,1135.8667434666054,-2027.185655371359,-240.90218794684787,-1111.55823544693,-1782.9640141448974,-1021.3649778060914
940.0,1135.3452818615033,-2032.7582096015017,-225.2486393113602,-1116.833368663788,-1791.2415785369874,-1007.9626139984131
950.0,1134.780038375109,-2038.2528739008005,-209.58646228139568,-1122.0657231445311,-1799.4505319366456,-994.5216411361695
960.0,1134.1712083256089,-2043.669739980578,-193.916288116929,-1127.2552661018372,-1807.5908287200928,-981.04272265625
970.0,1133.5189889811625,-2049.0089050011875,-178.2387437271031,-1132.4019683990477,-1815.6624290924071,-967.5265197753906
980.0,1132.823579494089,-2054.2704714583333,-162.55445170386963,-1137.5058044929503,-1823.6652989654542,-953.9736914749145
990.0,1132.0851808279883,-2059.454547079926,-146.864030239215,-1142.5667523880004,-1831.5994098815918,-940.3848943786621
1000.0,1131.303995692305,-2064.561244788894,-131.1680930793042,-1147.5847936286925,-1839.4647389678955,-926.7607826843262
1010.0,1130.4802285597702,-2069.590682610175,-115.46724946844333,-1152.5599132232667,-1847.2612689208984,-913.1020080947876
1020.0,1129.614085520234,-2074.5429835596615,-99.7621041500048,-1157.4920996246337,-1854.988987838745,-899.4092197494507
1030.0,1128.7057742935228,-2079.4182756007376,-84.05325726408662,-1162.381344684601,-1862.6478892517089,-885.683064125061
1040.0,1127.7555041500361,-2084.2166915465705,-68.341304380827,-1167.227643611908,-1870.237972000122,-871.9241850204468
1050.0,1126.7634858530391,-2088.9383689770034,-52.626836391654216,-1172.0309949378968,-1877.7592401885986,-858.1332234191894
1060.0,1125.7299316538567,-2093.5834501621953,-36.91043952096859,-1176.7914004554748,-1885.2117031402588,-844.3108174819946
1070.0,1124.6550551611897,-2098.1520819780117,-21.192695288381305,-1181.5088652038573,-1892.5953752746582,-830.4576024551392
1080.0,1123.5390713386307,-2102.6444158077293,-5.474180471040541,-1186.1833974075316,-1899.9102760620117,-816.574210609436
1090.0,1122.382196473309,-2107.0606075151154,10.244532925251173,-1190.8150084495544,-1907.1564300079347,-802.6612712020874
1100.0,1121.1846480861748,-2111.4008172960494,25.96287769693474,-1195.4037128067016,-1914.3338665161132,-788.7194103851318
1110.0,1119.9466448916512,-2115.665209633064,41.680291460097415,-1199.9495280303954,-1921.4426198425292,-774.7492511672974
1120.0,1118.6684067707968,-2119.853953215233,57.39621668118296,-1204.4524746894836,-1928.4827290496826,-760.7514133605957
1130.0,1117.350154688799,-2123.9672208556885,73.11010067096515,-1208.9125763435363,-1935.4542378997803,-746.7265135421753
1140.0,1115.992110671563,-2128.005189383448,88.82139565724123,-1213.3298594703674,-1942.35719480896,-732.6751649551392
1150.0,1114.594497751391,-2131.9680396148715,104.52955876148573,-1217.7043534622192,-1949.191652786255,-718.5979775085449
1160.0,1113.1575399350897,-2135.8559562299215,120.23405203154101,-1222.0360905456544,-1955.9576693573,-704.4955577087402
1170.0,1111.6814621220537,-2139.6691277146724,135.93434243468008,-1226.3251057701111,-1962.6553064727784,-690.3685086288452
1180.0,1110.1664900902301,-2143.4077462750192,151.62990191512776,-1230.571436943054,-1969.2846304779052,-676.2174298324585
1190.0,1108.6128504427795,-2147.0720077570345,167.32020737253268,-1234.7751245956422,-1975.845712020874,-662.0429173583984
1200.0,1107.0207705380103,-2150.6621115629296,183.00474066144497,-1238.9362119407654,-1982.3386259613037,-647.8455636825562
1210.0,1105.3904785163093,-2154.178260604019,198.68298864552844,-1243.0547448272705,-1988.763451385498,-633.6259576644898
1220.0,1103.7222031583049,-2157.6206611772673,214.35444315515983,-1247.1307717018128,-1995.1202714233398,-619.3846845169068
1230.0,1102.0161739166278,-2160.989522921594,230.01860102754156,-1251.16434356308,-2001.4091732635497,-605.122325767517
1240.0,1100.2726208522738,-2164.285058728982,245.67496409896307,-1255.1555139122008,-2007.630248062134,-590.8394592285156
1250.0,1098.491774596546,-2167.507484684944,261.32303920925267,-1259.1043387298585,-2013.7835908813477,-576.5366589660645
1260.0,1096.6738662707,-2170.6570199443336,276.9623381961123,-1263.0108764076233,-2019.8693005676269,-562.2144952545166
1270.0,1094.8191275293193,-2173.733886735728,292.59237791921566,-1266.8751877288819,-2025.8874797973633,-547.8735345687866
1280.0,1092.927790423607,-2176.7383102072404,308.2126802257702,-1270.6973358154296,-2031.83823487854,-533.5143395385742
1290.0,1091.0000874229784,-2179.6705184039515,323.8227719625893,-1274.477386089325,-2037.7216757659912,-519.1374689407348
1300.0,1089.0362513865139,-2182.530742182413,339.42218499408483,-1278.2154062232971,-2043.5379160003663,-504.7434776535034
1310.0,1087.036515470668,-2185.319215136195,355.0104561552521,-1281.911466117859,-2049.2870725860594,-490.33291665649415
1320.0,1085.0011131301592,-2188.036173505654,370.5871272950018,-1285.5656378326416,-2054.9692659606935,-475.9063329696655
1330.0,1082.9302780768305,-2190.6818561467194,386.1517452314991,-1289.1779955749512,-2060.584619934082,-461.4642696762085
1340.0,1080.8242442300364,-2193.2565044282082,401.70386174418275,-1292.7486156387329,-2066.13326159668,-447.0072658920288
1350.0,1078.68324572301,-2195.760362179283,417.2430335952709,-1296.2775763626098,-2071.6153213043212,-432.5358567352295
1360.0,1076.5075167934142,-2198.1936755993042,432.76882249800184,-1299.7649581031799,-2077.0309325408934,-418.0505733032227
1370.0,1074.2972918160503,-2200.556693224936,448.28079510172677,-1303.2108431968688,-2082.380231918335,-403.5519426879883
1380.0,1072.0528052425564,-2202.8496658248055,463.7785229979565,-1306.6153158950806,-2087.663359085083,-389.04048793029784
1390.0,1069.7742915578617,-2205.072846355534,479.2615826770081,-1309.9784623565674,-2092.88045664978,-374.51672803497314
1400.0,1067.461985264754,-2207.226489877666,494.72955553732027,-1313.300370578766,-2098.031670135498,-359.98117794036864
1410.0,1065.1161208772996,-2209.3108535336746,510.18202788636455,-1316.5811303825378,-2103.1171479644777,-345.4343485107422
1420.0,1062.736932806339,-2211.326196412706,525.6185908768501,-1319.8208333625794,-2108.1370412750243,-330.87674652862546
1430.0,1060.3246554315415,-2213.2727795590845,541.0388405350077,-1323.0195728492736,-2113.0915039978026,-316.3088746948242
1440.0,1057.8795230065343,-2215.150865855653,556.4423777156367,-1326.1774438667298,-2117.980692703247,-301.7312316131592
1450.0,1055.401769612332,-2216.960719977,571.828808085412,-1329.2945431098938,-2122.8047665405275,-287.1443117828369
1460.0,1052.8916292339657,-2218.7026083609653,587.197742132077,-1332.3709688873291,-2127.563887283325,-272.5486056060791
1470.0,1050.3493355749322,-2220.3767990827128,602.5487950980217,-1335.406821105957,-2132.2582191009524,-257.94459936523435
1480.0,1047.7751221926735,-2221.9835618671345,617.8815870043852,-1338.402201210022,-2136.88792868042,-243.3327752456665
1490.0,1045.1692223347686,-2223.5231679605963,633.1957425974172,-1341.3572121620177,-2141.4531850128174,-228.7136113052368
1500.0,1042.5318690166087,-2224.9958901371388,648.4908913428185,-1344.2719584083557,-2145.9541594543457,-214.08758150482177
1510.0,1039.8632949101277,-2226.4020025799814,663.7666673876079,-1347.1465458259584,-2150.3910255737305,-199.4551556854248
1520.0,1037.1637323902705,-2227.741780879295,679.0227095643783,-1349.9810817070008,-2154.763959182739,-184.81679957580567
1530.0,1034.4334134510084,-2229.01550192461,694.2586613379017,-1352.7756747093201,-2159.0731381988526,-170.17297479248046
1540.0,1031.6725697428008,-2230.223443912898,709.4741707881595,-1355.5304348373413,-2163.3187426757813,-155.52413887023926
1550.0,1028.8814324861048,-2231.3658862180678,724.6688906061413,-1358.2454733848572,-2167.5009546661377,-140.87074520874023
1560.0,1026.060232504705,-2232.443109406485,739.8424780359629,-1360.920902923584,-2171.6199582366944,-126.21324314117432
1570.0,1023.2092001278044,-2233.4553951264575,754.994594856887,-1363.5568372612,-2175.675939331055,-111.55207789611816
1580.0,1020.3285652858531,-2234.4030261167372,770.1249073833976,-1366.1533914031982,-2179.6690858459474,-96.88769062805176
1590.0,1017.4185573555285,-2235.2862860881078,785.233086403124,-1368.710681526184,-2183.5995874328614,-82.22051840209961
1600.0,1014.4794052419123,-2236.1054597349194,800.3188071642868,-1371.2288249511719,-2187.467635559082,-67.55099423217773
1610.0,1011.5113373001311,-2236.8608326349945,815.3817493351739,-1373.7079400939942,-2191.27342338562,-52.87954707336426
