sat1Name,LLO-10
sat1Smaj,3416.853
sat1Ecc,0.3668968419713896
sat1Inc,89.74174520194293
sat1RAAN,237.18132314756744
sat1ArgPer,293.09977055397934
sat1TrAnom,0
Time[EpSec],xF[km],yF[km],zF[km],xI[km],yI[km],zI[km]
0.0,936.3222478535224,-1171.29345534763,-1559.1327384073293,-467.51905566024783,-708.3811118469238,-1989.759970275879
10.0,940.2373829694536,-1183.7702934126364,-1547.3355540861548,-476.25613881683347,-721.986538192749,-1982.806417617798
20.0,944.1063189553062,-1196.1900076152003,-1535.463429857955,-484.9701562461853,-735.5569977416992,-1975.756834953308
30.0,947.9288751722281,-1208.551998643055,-1523.516946645582,-493.66068779754636,-749.0918361358642,-1968.6115713577271
40.0,951.7048756973037,-1220.8556731635754,-1511.49669281339,-502.3273157997131,-762.5904027404786,-1961.3709855499267
50.0,955.434149413799,-1233.1004439810981,-1499.4032640333521,-510.9696251487732,-776.0520508422852,-1954.0354458312988
60.0,959.1165300330292,-1245.2857301402996,-1487.2372631791984,-519.5872033882141,-789.4761377563476,-1946.60533001709
70.0,962.7518561004669,-1257.4109570155424,-1474.99930017127,-528.1796407852173,-802.8620249328613,-1939.081025314331
80.0,966.3399710562755,-1269.4755564880693,-1462.6899918550273,-536.7465304412842,-816.2090781402588,-1931.4629282684325
90.0,969.8807232547861,-1281.478966996608,-1450.3099618522815,-545.2874683418274,-829.5166675567627,-1923.7514446411133
100.0,973.3739659593855,-1293.420633671571,-1437.8598404548477,-553.8020534591675,-842.7841678771973,-1915.9469893417358
110.0,976.8195574360801,-1305.300008455193,-1425.3402644417904,-562.2898878173828,-856.0109585113526,-1908.0499863128662
120.0,980.2173608985315,-1317.1165501755129,-1412.7518769812455,-570.7505765838623,-869.196423614502,-1900.0608684387207
130.0,983.5672445931989,-1328.8697246712031,-1400.095327447744,-579.1837281303406,-882.3399522857666,-1891.980077430725
140.0,986.8690817405933,-1340.5590048613835,-1387.371271309936,-587.5889541244507,-895.4409385986328,-1883.808063720703
150.0,990.1227506652838,-1352.1838708946018,-1374.5803699444816,-595.965869594574,-908.4987818450928,-1875.5452863616943
160.0,993.3281346750123,-1363.743810164303,-1361.7232905321098,-604.3140930023193,-921.5128864898682,-1867.1922128982544
170.0,996.4851221999394,-1375.2383174707343,-1348.8007058655298,-612.6332463150025,-934.4826624298096,-1858.749319267273
180.0,999.5936067198112,-1386.6668950658327,-1335.8132942222217,-620.922955078125,-947.4075250091553,-1850.217089668274
190.0,1002.653486803791,-1398.029052744857,-1322.7617391978954,-629.1828484802246,-960.2868951568604,-1841.5960164413452
200.0,1005.6646661058007,-1409.3243079272163,-1309.6467295643708,-637.4125594215393,-973.1201994781494,-1832.8865999526977
210.0,1008.6270534065454,-1420.5521857557665,-1296.4689590831217,-645.6117245788574,-985.9068704071045,-1824.0893484573364
220.0,1011.5405625609724,-1431.7122191266324,-1283.2291263924824,-653.7799844627381,-998.6463462219239,-1815.204777984619
230.0,1014.4051125308598,-1442.8039487939425,-1269.9279348068476,-661.9169834938049,-1011.3380711975097,-1806.2334121856688
240.0,1017.22062739321,-1453.826923430157,-1256.5660921822423,-670.0223700408935,-1023.9814956970215,-1797.1757822265624
250.0,1019.9870363288828,-1464.7806996953439,-1243.144310724534,-678.0957965049744,-1036.5760762634277,-1788.0324266204834
260.0,1022.7042736039765,-1475.6648422881713,-1229.663306873682,-686.1369193572998,-1049.1212756805419,-1778.80389112854
270.0,1025.3722785793952,-1486.4789240035489,-1216.1238011066935,-694.1453991966248,-1061.616563079834,-1769.490728591919
280.0,1027.990995697815,-1497.2225257912528,-1202.526517787457,-702.120900806427,-1074.0614140167236,-1760.093498802185
290.0,1030.560374498142,-1507.8952368325768,-1188.872184977975,-710.0630932121277,-1086.4553105926514,-1750.6127683486939
300.0,1033.0803695599807,-1518.4966545402988,-1175.1615343248995,-717.9716497116088,-1098.797741455078,-1741.049110496521
310.0,1035.5509405124308,-1529.026384645167,-1161.3953008633132,-725.8462479515076,-1111.0882019195556,-1731.4031050262452
320.0,1037.9720520506924,-1539.4840412232468,-1147.574222813586,-733.6865699386597,-1123.326194076538,-1721.6753380584717
330.0,1040.34367386624,-1549.8692467303406,-1133.6990415151533,-741.4923021125793,-1135.511226776123,-1711.866401977539
340.0,1042.6657806596297,-1560.1816320459784,-1119.7705011549297,-749.2631353759766,-1147.6428157653809,-1701.9768951950073
350.0,1044.9383521025102,-1570.4208364938513,-1105.7893486760688,-756.998765132904,-1159.7204837036134,-1692.0074220581055
360.0,1047.1613728488044,-1580.5865078910579,-1091.7563335812342,-764.698891330719,-1171.743760269165,-1681.9585926818847
370.0,1049.3348324997332,-1590.678302573143,-1077.6722077732375,-772.3632185020447,-1183.7121822052002,-1671.8310227966308
380.0,1051.458725522707,-1600.6958853672124,-1063.5377253982704,-779.991455783844,-1195.6252933044434,-1661.6253335723877
390.0,1053.5330513445444,-1610.6389297053263,-1049.3536426634669,-787.5833169670105,-1207.482644607544,-1651.3421515045166
400.0,1055.557814185791,-1620.5071175314504,-1035.1207176927383,-795.1385205116272,-1219.2837942810058,-1640.9821082077026
410.0,1057.5330231379564,-1630.3001394152473,-1020.8397103571157,-802.6567896003723,-1231.028307800293,-1630.5458403091432
420.0,1059.4586920969439,-1640.0176944989569,-1006.5113821115018,-810.1378521308899,-1242.7157579345703,-1620.033989265442
430.0,1061.3348397060856,-1649.6594905227548,-992.1364958266997,-817.5814407730103,-1254.3457247772217,-1609.4472011947632
440.0,1063.1614893528983,-1659.2252438208134,-977.7158156591386,-824.98729296875,-1265.917795791626,-1598.7861267547607
450.0,1064.9386691528196,-1668.7146793603247,-963.2501068317534,-832.3551509742737,-1277.43156590271,-1588.0514209442138
460.0,1066.666411837551,-1678.1275306713562,-948.7401355560617,-839.6847618598938,-1288.8866374053955,-1577.243742980957
470.0,1068.3447548005454,-1687.4635399007443,-934.1866687900205,-846.9758775405884,-1300.2826201171874,-1566.3637561035157
480.0,1069.973740039384,-1696.7224577897591,-919.5904741379052,-854.2282547836304,-1311.6191313629151,-1555.412127456665
490.0,1071.5534140542518,-1705.9040436393707,-904.9523196780498,-861.4416552352906,-1322.895795944214,-1544.3895278930663
500.0,1073.0838279002812,-1715.0080653322073,-890.2729738164343,-868.6158454170227,-1334.112246246338,-1533.2966318588258
510.0,1074.5650370616695,-1724.0342992781723,-875.5532051190869,-875.750596748352,-1345.268122177124,-1522.1341171875
520.0,1075.997101471751,-1732.982530428808,-860.793782177222,-882.845685546875,-1356.3630712432862,-1510.9026649856567
530.0,1077.3800854295716,-1741.852552240182,-845.9954734294032,-889.9008930435181,-1367.3967485351563,-1499.6029594345093
540.0,1078.714057569285,-1750.644166637412,-831.1590470488821,-896.9160053749084,-1378.3688167266846,-1488.2356876678466
550.0,1079.9990908144723,-1759.3571840183245,-816.2852707833988,-903.8908136062622,-1389.278946105957,-1476.8015396118165
560.0,1081.23526232848,-1767.991423185022,-801.3749117993035,-910.8251137084961,-1400.1268145599365,-1465.3012078094482
570.0,1082.4226534369545,-1776.5467113310335,-786.4287365528307,-917.7187065849304,-1410.912107559204,-1453.7353872756958
580.0,1083.5613496599833,-1785.0228840228199,-771.4475106347301,-924.5713980407714,-1421.634518234253,-1442.1047753601074
590.0,1084.6514405488485,-1793.4197851237966,-756.431998654062,-931.3829988098145,-1432.293747253418,-1430.41007157135
600.0,1085.6930197395598,-1801.7372667839804,-741.3829640571707,-938.153324520111,-1442.8895029296875,-1418.6519774246217
610.0,1086.6861848299927,-1809.9751893846058,-726.301169049441,-944.8821957092285,-1453.4215011291503,-1406.8311963195802
620.0,1087.631037353539,-1818.133421500469,-711.1873744147516,-951.5694378089905,-1463.8894653015136,-1394.9484333572389
630.0,1088.527682726356,-1826.2118398414912,-696.0423394075607,-958.2148811302185,-1474.2931264495849,-1383.004395210266
640.0,1089.3762301931865,-1834.2103292179809,-680.8668216048978,-964.8183608589172,-1484.6322231292725,-1370.9997899627685
650.0,1090.1767927716553,-1842.1287824819183,-665.6615767985321,-971.379717037201,-1494.9065014190674,-1358.9353269805908
660.0,1090.9294871987443,-1849.9671004783174,-650.4273588599177,-977.898794555664,-1505.1157149047851,-1346.811716758728
670.0,1091.6344338500505,-1857.725191964197,-635.1649196299702,-984.3754431304932,-1515.2596246185303,-1334.6296707763672
680.0,1092.2917567289048,-1865.4029736040143,-619.8750087478716,-990.8095172958374,-1525.3379990997314,-1322.38990133667
690.0,1092.9015833803635,-1873.0003698616913,-604.5583735936402,-997.2008763771057,-1535.35061428833,-1310.093121459961
700.0,1093.4640448265516,-1880.5173129513328,-589.2157591605255,-1003.5493844642639,-1545.2972535095214,-1297.7400447387695
710.0,1093.9792755194292,-1887.953742784971,-573.8479079056186,-1009.8549104156494,-1555.1777074584961,-1285.331385169983
720.0,1094.4474133017784,-1895.3096069112055,-558.4555596579871,-1016.1173278083801,-1564.9917741851807,-1272.8678570480347
730.0,1094.8685993350903,-1902.5848604362905,-543.039451515342,-1022.3365149230957,-1574.739259033203,-1260.3501748275758
740.0,1095.2429779827032,-1909.7794659405608,-527.6003177380737,-1028.5123547363282,-1584.41997454834,-1247.7790529708861
750.0,1095.5706968845284,-1916.893393465653,-512.1388896251918,-1034.6447348594666,-1594.0337405853272,-1235.1552058563232
760.0,1095.8519067319455,-1923.9266203658262,-496.6558954391674,-1040.7335475502014,-1603.5803840789795,-1222.4793476028442
770.0,1096.0867613762525,-1930.8791313155998,-481.1520602573699,-1046.7786896514892,-1613.0597391967774,-1209.7521919708252
780.0,1096.2754176165422,-1937.7509181645155,-465.62810594666365,-1052.7800625839234,-1622.4716471099853,-1196.9744522399903
790.0,1096.4180352479984,-1944.5419799122499,-450.0847509954876,-1058.7375722999573,-1631.815956085205,-1184.1468410644532
800.0,1096.514776947286,-1951.2523226102246,-434.52271046913114,-1064.6511292648315,-1641.0925213623048,-1171.2700703735352
810.0,1096.5658082364573,-1957.8819592873647,-418.9426958824501,-1070.5206484146117,-1650.3012051391602,-1158.3448512268067
820.0,1096.5712974130004,-1964.430909874738,-403.34541516613507,-1076.3460491256715,-1659.4418764953614,-1145.3718937454223
830.0,1096.5314154552077,-1970.8992011121315,-387.73157251425124,-1082.1272551879883,-1668.5144113311767,-1132.3519069213867
840.0,1096.446336067042,-1977.2868665065328,-372.10186833847433,-1087.8641947517394,-1677.5186923980714,-1119.2855985794067
850.0,1096.3162354856877,-1983.5939461968485,-356.4569991902135,-1093.5568003082276,-1686.4546091156005,-1106.1736752166748
860.0,1096.1412925095176,-1989.8204869029423,-340.7976576654046,-1099.2050086402894,-1695.3220576019287,-1093.0168419113159
870.0,1095.9216884127638,-1995.9665418510256,-325.1245323424083,-1104.808760799408,-1704.1209405975342,-1079.8158022232055
880.0,1095.6576068758598,-2002.032170652134,-309.43830768552994,-1110.368002040863,-1712.851167388916,-1066.5712580566405
890.0,1095.349233935047,-2008.0174392617619,-293.73966400614427,-1115.8826818199157,-1721.5126537628173,-1053.2839095993043
900.0,1094.9967579432866,-2013.9224198682607,-278.029277361794,-1121.35275371933,-1730.1053219604491,-1039.954455192566
910.0,1094.6003694654248,-2019.74719080902,-262.30781951974416,-1126.7781754302978,-1738.6291005706787,-1026.5835912475586
920.0,1094.1602612472575,-2025.4918364798202,-246.57595785699738,-1132.158908695221,-1747.0839244995118,-1013.172012123108
930.0,1093.676628160351,-2031.156447273314,-230.83435533476168,-1137.4949192810059,-1755.4697349090577,-999.7204100723267
940.0,1093.1496671361474,-2036.741119449669,-215.0836704218185,-1142.7861769180297,-1763.7864791259765,-986.2294751205444
950.0,1092.579577103766,-2042.2459550909578,-199.32455701496184,-1148.0326552772522,-1772.034110610962,-972.6998949661255
960.0,1091.9665589402366,-2047.6710619817682,-183.55766444575065,-1153.2343319091797,-1780.2125888519288,-959.1323549423217
970.0,1091.3108154004308,-2053.016553542017,-167.78363734462008,-1158.391188217163,-1788.321879333496,-945.5275378570557
980.0,1090.6125510673046,-2058.282548714284,-152.00311566886398,-1163.5032093925477,-1796.3619534301758,-931.8861239776611
990.0,1089.871972309373,-2063.4691718974277,-136.21673460913973,-1168.5703843841552,-1804.3327883758545,-918.2087909164429
1000.0,1089.0892871966146,-2068.5765528481306,-120.42512454784324,-1173.5927058486939,-1812.2343671722413,-904.496213546753
1010.0,1088.264705465665,-2073.604826591851,-104.6289110198816,-1178.5701701049804,-1820.066678527832,-890.7490639343262
1020.0,1087.398438447899,-2078.554133325972,-88.82871468507335,-1183.5027770881652,-1827.8297167663575,-876.9680112686157
1030.0,1086.4906990248899,-2083.4246183459395,-73.0251512689162,-1188.3905303077697,-1835.5234817810058,-863.1537217788697
1040.0,1085.5417015901155,-2088.216431944307,-57.218831516702544,-1193.2334367828369,-1843.1479789733887,-849.3068586578369
1050.0,1084.5516619540708,-2092.929729325432,-41.41036120520346,-1198.0315070228576,-1850.7032191314697,-835.4280820236206
1060.0,1083.5207973080396,-2097.564670502561,-25.600341055710683,-1202.7847549629212,-1858.189218383789,-821.5180488052368
1070.0,1082.4493261907935,-2102.121420234067,-9.789366724321619,-1207.4931979141236,-1865.6059981536864,-807.5774127120972
1080.0,1081.3374684282865,-2106.6001479171337,6.021971205894021,-1212.156856525421,-1872.9535850524903,-793.606824180603
1090.0,1080.185445040392,-2111.0010274980395,21.833087300622488,-1216.775754737854,-1880.2320108032227,-779.6069302597045
1100.0,1078.9934782663981,-2115.3242373973717,37.64340125425567,-1221.3499197196961,-1887.441312210083,-765.5783746185302
1110.0,1077.7617914206512,-2119.569960389722,53.4523379369271,-1225.879381839752,-1894.5815310058595,-751.5217974319459
1120.0,1076.4906089425285,-2123.7383835720625,69.2593274049483,-1230.364174610138,-1901.6527138824463,-737.4378353805542
1130.0,1075.1801562461146,-2127.8296982018005,85.06380493556976,-1234.8043346290588,-1908.6549123077393,-723.3271215362549
1140.0,1073.830659768437,-2131.844099689444,100.8652110239499,-1239.1999015541076,-1915.5881825561523,-709.1902853775024
1150.0,1072.4423468339633,-2135.781787436672,116.66299141636689,-1243.5509180297852,-1922.4525855407715,-695.0279526824951
1160.0,1071.0154456595494,-2139.6429648041058,132.45659711096798,-1247.8574296646118,-1929.2481867980957,-680.8407455215454
1170.0,1069.5501852929458,-2143.427838993621,148.2454843848074,-1252.1194849586486,-1935.9750563964844,-666.6292821884156
1180.0,1068.0467955543884,-2147.1366209805733,164.0291147994605,-1256.3371352767945,-1942.6332688598634,-652.3941771621704
1190.0,1066.5055070451558,-2150.769525436261,179.8069552091743,-1260.5104347839356,-1949.2229031372071,-638.1360410842896
1200.0,1064.9265509821228,-2154.3267705935014,195.57847774093995,-1264.639440410614,-1955.7440424041747,-623.8554806976318
1210.0,1063.310159307676,-2157.808578237673,211.34315986926424,-1268.724211795807,-1962.1967741699218,-609.5530988082886
1220.0,1061.656564506213,-2161.2151735487687,227.10048434328846,-1272.7648112411498,-1968.581190032959,-595.2294942626953
1230.0,1059.9659996538794,-2164.546785082311,242.8499392387767,-1276.7613036766052,-1974.8973857269286,-580.8852619094848
1240.0,1058.238698336587,-2167.803644650926,258.59101794547263,-1280.7137565956116,-1981.145460998535,-566.5209925613403
1250.0,1056.4748946020995,-2170.985987227559,274.3232191593564,-1284.6222400054933,-1987.3255195159911,-552.1372729644776
1260.0,1054.6748229546454,-2174.0940509304864,290.04604690348486,-1288.486826412201,-1993.4376688690186,-537.7346857757568
1270.0,1052.8387182489384,-2177.128076845612,305.7590104914346,-1292.3075907249452,-1999.482020385742,-523.3138095245362
1280.0,1050.9668157397452,-2180.0883090596362,321.46162455072977,-1296.0846102638245,-2005.4586891937256,-508.8752186126709
1290.0,1049.0593509608696,-2182.9749944811642,337.1534090074483,-1299.8179646644592,-2011.3677940368652,-494.41948325347903
1300.0,1047.1165597103286,-2185.7883828140116,352.8338890814743,-1303.5077358703613,-2017.209457244873,-479.9471694641113
1310.0,1045.1386780588714,-2188.528726486559,368.50259526629134,-1307.1540080604552,-2022.9838047027588,-465.45883907318114
1320.0,1043.1259422173343,-2191.196280519265,384.1590633418371,-1310.7568676147462,-2028.6909656829835,-450.95504963684084
1330.0,1041.0785886157262,-2193.791302541372,399.8028343406406,-1314.3164030799867,-2034.3310729064942,-436.4363544998169
1340.0,1038.996853762058,-2196.314052625629,415.43345456832077,-1317.832705104828,-2039.9042623596192,-421.903302696228
1350.0,1036.8809742612953,-2198.7647932549703,431.0504755348197,-1321.305866405487,-2045.4106732635498,-407.35643901062014
1360.0,1034.7311867817848,-2201.143789264192,446.65345400543055,-1324.7359817276001,-2050.8504480438232,-392.79630390930174
1370.0,1032.5477280136226,-2203.4513077344345,462.24195195174065,-1328.1231477851868,-2056.2237322235105,-378.2234335479736
1380.0,1030.330834600391,-2205.687617933236,477.81553651625177,-1331.4674632377626,-2061.530674331665,-363.6383597717285
1390.0,1028.080743155711,-2207.8529912482327,493.3737800335619,-1334.7690286331176,-2066.7714258880615,-349.0416100845337
1400.0,1025.797690226749,-2209.947701126427,508.9162600133506,-1338.027946369171,-2071.946141342163,-334.4337076416016
1410.0,1023.4819122392685,-2211.972022991922,524.4425590776198,-1341.2443206520081,-2077.054977966309,-319.81517127227784
1420.0,1021.133645437235,-2213.9262341564327,539.9522649673,-1344.4182574577333,-2082.09809576416,-305.1865154342651
1430.0,1018.7531259393046,-2215.8106138048274,555.4449705516065,-1347.5498644828797,-2087.0756575164796,-290.54825022125243
1440.0,1016.3405896394713,-2217.625442881133,570.920273749147,-1350.6392511062622,-2091.987828613281,-275.90088137817384
1450.0,1013.8962722022643,-2219.371004049173,586.3777775354066,-1353.68652835083,-2096.8347770385744,-261.2449102859497
1460.0,1011.4204090280122,-2221.0475816130033,601.8170899268812,-1356.6918088417053,-2101.6166732940674,-246.58083394622804
1470.0,1008.9132352255806,-2222.6554614578877,617.237823942826,-1359.6552067642212,-2106.3336903381346,-231.90914499664308
1480.0,1006.3749855902986,-2224.194931005462,632.6395975872431,-1362.5768378372193,-2110.986003540039,-217.23033171081542
1490.0,1003.8058945581353,-2225.6662791051904,648.0220338067977,-1365.4568192481995,-2115.5737905731203,-202.54487799835206
1500.0,1001.2061962300565,-2227.0697960295583,663.384760489261,-1368.2952696380614,-2120.097231430054,-187.8532634124756
1510.0,998.5761242687169,-2228.405773369192,678.727410431355,-1371.0923090553283,-2124.5565082855223,-173.15596312713623
1520.0,995.9159119594117,-2229.6745040141004,694.0496212944016,-1373.8480589179992,-2128.9518055114745,-158.4534479904175
1530.0,993.2257921241663,-2230.876282048294,709.3510355920824,-1376.5626419677735,-2133.2833095550536,-143.74618448638915
1540.0,990.5059970947216,-2232.011402722342,724.6313006515147,-1379.2361822547912,-2137.551208892822,-129.0346347579956
1550.0,987.7567587453196,-2233.0801623890557,739.8900685990154,-1381.8688050727844,-2141.7556940155027,-114.31925661468506
1560.0,984.9783084376149,-2234.0828584677306,755.1269963097061,-1384.4606369514465,-2145.8969573516847,-99.60050355529785
1570.0,982.1708769861024,-2235.0197893552872,770.3417453913257,-1387.0118055992127,-2149.9751931915284,-84.87882475280762
1580.0,979.3346946305796,-2235.891254376233,785.5339821534269,-1389.5224398803712,-2153.9905976257323,-70.15466506195068
1590.0,976.4699910741335,-2236.6975537663848,800.7033775770587,-1391.9926697731019,-2157.943368560791,-55.428465057373046
1600.0,973.5769953972348,-2237.4389885800656,815.8496072618472,-1394.4226263427734,-2161.833705581665,-40.70066103363037
1610.0,970.6559360714447,-2238.115860655491,830.9723514321685,-1396.8124416999817,-2165.6618099517823,-25.971684997558594
