sat1Name,LLO-45
sat1Smaj,3416.853
sat1Ecc,0.3568171977020548
sat1Inc,89.71436251439003
sat1RAAN,237.31139043958336
sat1ArgPer,292.63614079562365
sat1TrAnom,0
Time[EpSec],xF[km],yF[km],zF[km],xI[km],yI[km],zI[km]
0.0,948.0228338801537,-1176.8799890996388,-1595.5940754314565,-465.32024805831907,-706.4049821472167,-2028.3449715957643
10.0,951.9881519967452,-1189.2721873611083,-1584.0278032130673,-473.95378216171264,-719.921216796875,-2021.6021152801513
20.0,955.9088401124905,-1201.609663629398,-1572.3883644061334,-482.5654243469238,-733.4041983184815,-2014.7658811798096
30.0,959.7847233067791,-1213.8918497693755,-1560.6763020395408,-491.15477850341796,-746.8533064117431,-2007.8365919647217
40.0,963.6156310334599,-1226.1181830674493,-1548.8921659385824,-499.721450717926,-760.2679242095948,-2000.8145791244506
50.0,967.4013970440676,-1238.2881063056154,-1537.036512700401,-508.2650493774414,-773.6474382629394,-1993.700182937622
60.0,971.1418595175417,-1250.401067893312,-1525.109905487056,-516.7851852188111,-786.9912387847901,-1986.4937523498536
70.0,974.8368609971455,-1262.456521926019,-1513.11291400842,-525.2814714126587,-800.2987196350098,-1979.1956449508666
80.0,978.4862484885671,-1274.453928343723,-1501.0461143345972,-533.753523639679,-813.5692785491943,-1971.8062268676758
90.0,982.0898734432794,-1286.3927529870493,-1488.910088799386,-542.2009601631164,-826.8023171844483,-1964.3258726806641
100.0,985.6475918048734,-1298.272467718813,-1476.7054259042493,-550.6234018936158,-839.9972412567139,-1956.7549653778076
110.0,989.1592640196614,-1310.0925505063353,-1464.432720156122,-559.0204724655151,-853.153460647583,-1949.0938962249757
120.0,992.6247550680735,-1321.852485517749,-1452.0925719759653,-567.3917983016968,-866.2703895111084,-1941.3430647125244
130.0,996.0439344804023,-1333.5517632092738,-1439.6855875650158,-575.7370086784363,-879.3474463806152,-1933.5028784561157
140.0,999.4166763303489,-1345.189880417881,-1427.2123787694002,-584.0557358093262,-892.384054260254,-1925.5737530899048
150.0,1002.7428592953268,-1356.7663404409793,-1414.6735629422794,-592.3476148872376,-905.3796407623291,-1917.556112174988
160.0,1006.0223666434425,-1368.2806531418066,-1402.0697628564324,-600.6122841758728,-918.3336381835937,-1909.4503871383668
170.0,1009.2550862554714,-1379.732334988827,-1389.40160651481,-608.8493850402832,-931.2454836120605,-1901.257017112732
180.0,1012.4409106217522,-1391.1209091717383,-1376.6697270572197,-617.0585620422363,-944.1146190185547,-1892.9764488754272
190.0,1015.5797368793334,-1402.4459056606204,-1363.874762627135,-625.239462978363,-956.9404913635254,-1884.6091367492677
200.0,1018.6714667713643,-1413.706861263727,-1351.0173562059542,-633.391738948822,-969.7225526580811,-1876.155542449951
210.0,1021.7160067416288,-1424.9033197564768,-1338.0981554925547,-641.5150444183349,-982.4602601470947,-1867.6161350326538
220.0,1024.7132678260255,-1436.0348318669987,-1325.11781277867,-649.6090372657776,-995.1530762634277,-1858.991390739441
230.0,1027.6631657533633,-1447.1009554065263,-1312.076984801475,-657.6733788452149,-1007.8004688262939,-1850.2817929229736
240.0,1030.565620890518,-1458.1012553073456,-1298.9763325698755,-665.7077340393066,-1020.4019110870362,-1841.487831878662
250.0,1033.420558262789,-1469.035303664845,-1285.8165212839542,-673.7117713012696,-1032.956881790161,-1832.6100047836303
260.0,1036.227907561035,-1479.9026798477355,-1272.598220147026,-681.6851627311706,-1045.464865310669,-1823.6488155517577
270.0,1038.9876031120048,-1490.7029704971847,-1259.3221022534967,-689.6275841026306,-1057.9253516693116,-1814.6047747192383
280.0,1041.699583913188,-1501.4357696098994,-1245.9888444084588,-697.5387149162292,-1070.337836669922,-1805.478399307251
290.0,1044.363793565412,-1512.1006785659074,-1232.599127027767,-705.418238456726,-1082.701821899414,-1796.270212715149
300.0,1046.9801803357875,-1522.6973062052261,-1219.1536339663242,-713.2658418273926,-1095.0168148803712,-1786.9807445983886
310.0,1049.5486971052846,-1533.2252688369815,-1205.653052377406,-721.0812159919739,-1107.2823290863037,-1777.6105307235719
320.0,1052.0693013807397,-1543.684190323806,-1192.098072571938,-728.8640558357239,-1119.4978840484619,-1768.1601128616333
330.0,1054.5419552583303,-1554.0737020722195,-1178.4893878853507,-736.6140601844787,-1131.6630053710937,-1758.6300386505127
340.0,1056.9666254310143,-1564.393443098058,-1164.827694501844,-744.3309318542481,-1143.7772248382569,-1749.0208614501953
350.0,1059.3432831502744,-1574.6430600419433,-1151.1136913561759,-752.0143776855468,-1155.8400804290773,-1739.3331402435304
360.0,1061.67190425671,-1584.8222072298358,-1137.3480799111942,-759.6641085853577,-1167.8511164550782,-1729.567439453125
370.0,1063.952469121742,-1594.9305466682645,-1123.5315641125019,-767.279839553833,-1179.809883529663,-1719.7243288803102
380.0,1066.1849626071416,-1604.967748063716,-1109.6648501739926,-774.8612897224426,-1191.7159386291503,-1709.8043834991456
390.0,1068.3693741178224,-1614.9334888896751,-1095.7486464531087,-782.4081823844909,-1203.5688452148438,-1699.8081833724975
400.0,1070.5056975096186,-1624.8274543523198,-1081.7836632926842,-789.92024502182,-1215.3681732025148,-1689.736313468933
410.0,1072.5939311140462,-1634.6493374506408,-1067.770612914799,-797.3972093391418,-1227.1134990539551,-1679.5893635864259
420.0,1074.6340776934599,-1644.3988389630988,-1053.7102092325454,-804.8388112792969,-1238.8044058074952,-1669.3679281616212
430.0,1076.6261443945737,-1654.0756674625877,-1039.6031677305027,-812.2447910652161,-1250.4404830932617,-1659.072606147766
440.0,1078.5701427701456,-1663.6795393369634,-1025.4502053367733,-819.61489320755,-1262.0213272094727,-1648.704000907898
450.0,1080.4660887130904,-1673.2101787799804,-1011.2520402403172,-826.9488665313721,-1273.5465411376954,-1638.2627200241088
460.0,1082.3140024178203,-1682.6673178018257,-997.0093917857735,-834.2464642066956,-1285.0157345581056,-1627.7493751907348
470.0,1084.113908417375,-1692.0506962393472,-982.7229803187673,-841.5074437446594,-1296.42852394104,-1617.1645820846556
480.0,1085.8658354665595,-1701.3600617315735,-968.3935270403722,-848.7315670356751,-1307.7845325012206,-1606.5089601898194
490.0,1087.5698165559118,-1710.595169731312,-954.0217538920948,-855.918600353241,-1319.083390258789,-1595.783132698059
500.0,1089.2258888711053,-1719.7557835044786,-939.6083833885493,-863.0683143806458,-1330.3247340698242,-1584.9877263412475
510.0,1090.8340937597645,-1728.8416740942962,-925.1541385048763,-870.1804841995239,-1341.5082076263427,-1574.123371269226
520.0,1092.3944766809996,-1737.8526203359438,-910.6597425162228,-877.254889328003,-1352.6334614868165,-1563.1907008895873
530.0,1093.907087195758,-1746.7884088315398,-896.125918907631,-884.2913137054443,-1363.7001530914306,-1552.190351776123
540.0,1095.3719788874666,-1755.6488339269704,-881.5533911759603,-891.2895457229614,-1374.707946762085,-1541.1229634552003
550.0,1096.7892093780738,-1764.433697720348,-866.94288276323,-898.2493782157898,-1385.656513748169,-1529.989178352356
560.0,1098.1588402307411,-1773.1428099947557,-852.2951168836098,-905.170608467102,-1396.545532180786,-1518.7896415863038
570.0,1099.4809369735033,-1781.7759882418163,-837.6108164096303,-912.0530382118225,-1407.3746871490478,-1507.5250008773803
580.0,1100.7555689629628,-1790.333057592689,-822.8907037445855,-918.896473651886,-1418.1436706085206,-1496.1959063720703
590.0,1101.982809438104,-1798.8138508278182,-808.135500703334,-925.700725440979,-1428.8521814727783,-1484.8030105514526
600.0,1103.1627354479022,-1807.2182083333505,-793.3459283488017,-932.4656086883545,-1439.4999255981445,-1473.3469680480957
610.0,1104.295427786687,-1815.5459780599836,-778.5227069319476,-939.1909429550171,-1450.086615737915,-1461.8284355621338
620.0,1105.380970935738,-1823.7970154835018,-763.6665557225276,-945.8765522537232,-1460.6119715423583,-1450.2480716781615
630.0,1106.4194530839425,-1831.971183605142,-748.7781928871925,-952.522265045166,-1471.075719619751,-1438.6065367584229
640.0,1107.4109660198665,-1840.0683528762208,-733.858335418852,-959.127914226532,-1481.4775934448242,-1426.904492828369
650.0,1108.3556050934862,-1848.0884011530563,-718.9076989619499,-965.6933371162414,-1491.8173333740235,-1415.1426033935547
660.0,1109.253469227072,-1856.0312137122328,-703.9269977313071,-972.218375465393,-1502.094686691284,-1403.3215333709718
670.0,1110.1046607644441,-1863.8966831211421,-688.9169443958059,-978.7028754310608,-1512.309407470703,-1391.4419489059449
680.0,1110.9092855221434,-1871.6847092690275,-673.8782499603387,-985.1466875648498,-1522.4612566833496,-1379.504517288208
690.0,1111.667452698777,-1879.395199281287,-658.8116236469017,-991.549666809082,-1532.5500021209716,-1367.509906791687
700.0,1112.3792747898103,-1887.028067472008,-643.7177728065899,-997.9116724815368,-1542.5754183502197,-1355.4587865600586
710.0,1113.0448675994376,-1894.5832352887671,-628.5974028086542,-1004.2325682449341,-1552.5372867279052,-1343.3518264923096
720.0,1113.6643501901956,-1902.0606313064673,-613.4512169147264,-1010.5122221107483,-1562.4353954162598,-1331.189697113037
730.0,1114.237844749247,-1909.4601910928097,-598.2799162177594,-1016.7505064086914,-1572.2695392303467,-1318.973069442749
740.0,1114.7654766439712,-1916.7818572223325,-583.0841994958594,-1022.9472977714538,-1582.0395197448731,-1306.702614883423
750.0,1115.247374289261,-1924.02557918549,-567.8647631604968,-1029.102477115631,-1591.7451451721192,-1294.3790051116944
760.0,1115.6836691695792,-1931.1913133565076,-552.6223011195905,-1035.21592962265,-1601.386230407715,-1282.0029119491578
770.0,1116.0744956983833,-1938.2790228876315,-537.3575046906233,-1041.2875447120666,-1610.9625969085694,-1269.5750072174071
780.0,1116.4199912405236,-1945.2886776960538,-522.0710625471014,-1047.3172160224915,-1620.4740727233886,-1257.0959626922609
790.0,1116.7202960326756,-1952.2202543822316,-506.7636605743825,-1053.3048413848876,-1629.9204924468995,-1244.5664499282836
800.0,1116.975553135376,-1959.073736163485,-491.4359818030768,-1059.250322795868,-1639.3016971740722,-1231.9871401672362
810.0,1117.1859083518204,-1965.8491128094834,-476.0887063608016,-1065.15356640625,-1648.6175344238281,-1219.3587042541503
820.0,1117.3515102496656,-1972.5463805938264,-460.72251130195997,-1071.0144824676513,-1657.8678582000732,-1206.6818124771119
830.0,1117.4725100063295,-1979.165542198339,-445.3380706082622,-1076.832985332489,-1667.0525288238525,-1193.9571344985961
840.0,1117.54906144281,-1985.706606671993,-429.93605508057215,-1082.608993408203,-1676.171412979126,-1181.1853392562866
850.0,1117.581320909853,-1992.1695893351132,-414.51713223333945,-1088.3424291305541,-1685.2243836212158,-1168.367094810486
860.0,1117.5694472928665,-1998.5545117560405,-399.08196626671696,-1094.0332189483643,-1694.2113199768066,-1155.5030683135985
870.0,1117.5136019088852,-2004.8614016234255,-383.63121794048254,-1099.6812932662963,-1703.1321074523926,-1142.5939258346557
880.0,1117.4139484661628,-2011.0902927080676,-368.1655445635242,-1105.2865864334105,-1711.986637588501,-1129.6403323287964
890.0,1117.2706530398116,-2017.2412248004052,-352.68559986058585,-1110.8490367088318,-1720.7748080596923,-1116.6429514923095
900.0,1117.0838839875876,-2023.3142436086414,-337.19203395040824,-1116.3685862197876,-1729.496522567749,-1103.6024456939697
910.0,1116.8538118900651,-2029.309400692979,-321.6854932650176,-1121.845180934906,-1738.1516907958985,-1090.519475868225
920.0,1116.5806095392022,-2035.22675341901,-306.16662046575334,-1127.2787706336976,-1746.7402284088134,-1077.394701423645
930.0,1116.264451854455,-2041.066364851383,-290.63605442156353,-1132.669308856964,-1755.2620569458009,-1064.2287801742555
940.0,1115.9055158191618,-2046.828303679525,-275.0944301268301,-1138.0167528915406,-1763.7171037597657,-1051.0223682250976
950.0,1115.503980465679,-2052.512644166116,-259.5423786319676,-1143.3210637168884,-1772.105302017212,-1037.7761198959352
960.0,1115.0600268196313,-2058.1194660630567,-243.98052700256358,-1148.5822059783936,-1780.4265906219482,-1024.4906876449586
970.0,1114.5738377852335,-2063.6488545054544,-228.40949828209577,-1153.8001479492189,-1788.6809140930177,-1011.1667219772339
980.0,1114.0455981822213,-2069.100899977033,-212.82991139779892,-1158.9748614883422,-1796.8682226104736,-997.8048713607789
990.0,1113.4754946523337,-2074.475698209598,-197.2423811585655,-1164.1063220062256,-1804.9884718933106,-984.4057821731567
1000.0,1112.8637155812314,-2079.773350100824,-181.64751816618664,-1169.1945084266663,-1813.0416231384277,-970.9700985794068
1010.0,1112.210451105719,-2084.9939616652605,-166.04592879369133,-1174.239403152466,-1821.0276430053711,-957.4984625015259
1020.0,1111.5158930222844,-2090.137643920222,-150.4382151354385,-1179.2409920158386,-1828.9465035095216,-943.9915135192871
1030.0,1110.7802347532943,-2095.2045128323944,-134.82497495592898,-1184.1992642478942,-1836.7981819915772,-930.4498888015747
1040.0,1110.003671298155,-2100.1946892291226,-119.206801677624,-1189.1142124290466,-1844.5826610412598,-916.874223060608
1050.0,1109.1863991530445,-2105.1082987201844,-103.58428431171492,-1193.98583246994,-1852.2999284210205,-903.2651484451294
1060.0,1108.32861632466,-2109.9454716230703,-87.95800743012398,-1198.8141235427856,-1859.9499770507812,-889.6232945022583
1070.0,1107.4305222278888,-2114.706342891448,-72.32855112324178,-1203.5990880622865,-1867.5328049163818,-875.9492880935669
1080.0,1106.4923176388681,-2119.3910520039153,-56.69649101348676,-1208.3407316360474,-1875.0484149627684,-862.243753364563
1090.0,1105.514204700916,-2123.999742945038,-41.0623981540344,-1213.0390630264283,-1882.4968151397704,-848.5073116531372
1100.0,1104.4963868082775,-2128.5325640684046,-25.42683903727785,-1217.6940941085816,-1889.878018234253,-834.7405814285278
1110.0,1103.4390686067209,-2132.989668049848,-9.790375580376248,-1222.3058398284911,-1897.1920418548584,-820.9441782684327
1120.0,1102.3424559149757,-2137.3712117882005,5.84643491645169,-1226.874318157196,-1904.4389083404542,-807.1187147750854
1130.0,1101.2067557188516,-2141.677356364556,21.483039832747075,-1231.3995500602723,-1911.618644760132,-793.2648005065918
1140.0,1100.032176082974,-2145.908266928495,37.11889116162388,-1235.881559452057,-1918.7312827606202,-779.3830419845581
1150.0,1098.8189261205641,-2150.0641126228884,52.75344561565574,-1240.3203731422425,-1925.7768585510255,-765.4740425720215
1160.0,1097.5672159811975,-2154.145066536936,68.38616460180923,-1244.7160208091736,-1932.7554128570557,-751.5384024810791
1170.0,1096.2772567459244,-2158.1513055881983,84.01651425848168,-1249.0685349502564,-1939.66699079895,-737.5767186813355
1180.0,1094.94926044495,-2162.083010493625,99.64396545478353,-1253.3779508476257,-1946.5116418914795,-723.5895848999023
1190.0,1093.583439944894,-2165.9403656292498,115.26799380880419,-1257.64430651474,-1953.2894198913575,-709.5775915374755
1200.0,1092.1800089919707,-2169.7235590207797,130.8880797183701,-1261.8676426582335,-1960.0003828430176,-695.5413256530762
1210.0,1090.7391821006827,-2173.43278222512,146.50370835150778,-1266.0480026435853,-1966.6445929260253,-681.4813709106445
1220.0,1089.26117454782,-2177.068230276707,162.11436967484386,-1270.1854324455262,-1973.2221164398193,-667.3983075408936
1230.0,1087.7462023140627,-2180.6301016018974,177.7195584532374,-1274.2799806137084,-1979.7330237121582,-653.2927123031616
1240.0,1086.1944820290905,-2184.1185979269094,193.31877422777842,-1278.3316982154847,-1986.1773890075683,-639.1651584701538
1250.0,1084.6062310057932,-2187.5339242616756,208.91152139621704,-1282.3406388130188,-1992.5552905731201,-625.0162157592773
1260.0,1082.9816670991781,-2190.876288761555,224.49730915040766,-1286.3068584136963,-1998.8668104400635,-610.8464503173828
1270.0,1081.3210087415282,-2194.1459026861935,240.0756514951021,-1290.2304154167175,-2005.112034439087,-596.6564247055054
1280.0,1079.6244748484312,-2197.3429803202316,255.64606727045157,-1294.111370601654,-2011.2910520935059,-582.4466978302002
1290.0,1077.8922848560312,-2200.467738920905,271.20808012933367,-1297.9497870559692,-2017.4039566192628,-568.2178249664306
1300.0,1076.1246586083737,-2203.5203986067227,286.7612185619974,-1301.7457301483155,-2023.4508447875976,-553.970357673645
1310.0,1074.3218163503748,-2206.5011823226014,302.305015862557,-1305.4992674942016,-2029.4318168945313,-539.7048438186646
1320.0,1072.4839787158194,-2209.4103157602417,317.83901014567255,-1309.210468902588,-2035.346976715088,-525.4218275375366
1330.0,1070.6113666500366,-2212.2480272711277,333.362744367259,-1312.8794063377381,-2041.196431411743,-511.1218491744995
1340.0,1068.7042013967546,-2215.014547824517,348.8757662441643,-1316.5061538887023,-2046.9802914733887,-496.8054453430176
1350.0,1066.7627044699298,-2217.7101109178216,364.37762835423433,-1320.0907877159118,-2052.6986706848143,-482.47314880371096
1360.0,1064.7870975876158,-2220.3349525204226,379.8678880117321,-1323.6333860282898,-2058.351686004639,-468.1254885482788
1370.0,1062.777602707152,-2222.8893110079366,395.34610736927283,-1327.134029018402,-2063.9394575958254,-453.7629897003174
1380.0,1060.7344419001954,-2225.3734270818463,410.8118533253951,-1330.5927988510132,-2069.462108657837,-439.3861735458374
1390.0,1058.6578373985758,-2227.7875437251587,426.26469757737596,-1334.0097796096802,-2074.9197654571535,-424.9955574874878
1400.0,1056.5480115276716,-2230.131906110895,441.70421654545044,-1337.385057247162,-2080.3125572052004,-410.5916550750732
1410.0,1054.4051866646557,-2232.4067615658196,457.1299914244764,-1340.7187195777892,-2085.640616027832,-396.17497593688967
1420.0,1052.2295852302202,-2234.6123594791366,472.54160812520246,-1344.0108562088012,-2090.904076889038,-381.7460258102417
1430.0,1050.0214296755616,-2236.7489512762245,487.9386572820721,-1347.261558517456,-2096.1030775756835,-367.3053065261841
1440.0,1047.7809423944627,-2238.8167903011663,503.32073423516255,-1350.4709196052552,-2101.2377585601807,-352.8533159713745
1450.0,1045.5083457610124,-2240.81613182755,518.6874390061654,-1353.6390342788695,-2106.308263031006,-338.3905481262207
1460.0,1043.203862047082,-2242.7472329215107,534.0383762940241,-1356.7659989852905,-2111.314736755371,-323.9174930114746
1470.0,1040.8677134388533,-2244.6103524456153,549.3731554664126,-1359.8519118003844,-2116.2573280944825,-309.4346367034912
1480.0,1038.5001219636058,-2246.405750947208,564.691390492074,-1362.8968723716737,-2121.136187866211,-294.9424613494873
1490.0,1036.10130952579,-2248.133690657382,579.992699993208,-1365.9009819030762,-2125.951469390869,-280.44144512939454
1500.0,1033.6714978054326,-2249.7944353683974,595.2767071733867,-1368.8643431053163,-2130.703328323364,-265.9320622634888
1510.0,1031.2109082803236,-2251.388250416062,610.5430398155247,-1371.7870601577758,-2135.391922668457,-251.41478302001954
1520.0,1028.71976222621,-2252.9154026398705,625.7913302697594,-1374.669238685608,-2140.017412750244,-236.89007371520995
1530.0,1026.1982806239548,-2254.376160278529,641.0212154143164,-1377.5109857177733,-2144.579961074829,-222.35839669799805
1540.0,1023.6466841718086,-2255.770792948539,656.2323366478217,-1380.3124096565246,-2149.0797323303223,-207.820210357666
1550.0,1021.0651932744631,-2257.0995715754307,671.4243398509631,-1383.0736202316284,-2153.5168933258055,-193.27596913909912
1560.0,1018.4540280040239,-2258.362768358083,686.5968753828253,-1385.7947284851075,-2157.8916129455565,-178.72612352752685
1570.0,1015.8134080784976,-2259.560656701995,701.7495980496068,-1388.475846725464,-2162.2040620880125,-164.17112005615235
1580.0,1013.1435528243045,-2260.6935111585526,716.8821670679184,-1391.1170885009765,-2166.4544135894776,-149.61140131378173
1590.0,1010.4446812069903,-2261.7616074038838,731.9942460556214,-1393.7185685577392,-2170.6428422393797,-135.047405960083
1600.0,1007.7170117558126,-2262.7652221605153,747.0855030189066,-1396.2804028205871,-2174.769524673462,-120.47956869506837
1610.0,1004.9607625648065,-2263.7046331525135,762.1556102774742,-1398.8027083473205,-2178.834639328003,-105.90832032012939
