sat1Name,LLO-22
sat1Smaj,3416.853
sat1Ecc,0.35378934625097935
sat1Inc,89.79486326004098
sat1RAAN,238.05691627563684
sat1ArgPer,293.0597796154166
sat1TrAnom,0
Time[EpSec],xF[km],yF[km],zF[km],xI[km],yI[km],zI[km]
0.0,968.5245285165199,-1187.624655890226,-1589.5917687695844,-463.7474489097595,-730.0469109954834,-2031.566855491638
10.0,972.5918366376028,-1199.814194275944,-1577.9365173644521,-472.1563292503357,-743.5799929199219,-2024.7295693969727
20.0,976.6142023680042,-1211.9493044892113,-1566.2094004068751,-480.5437058067322,-757.0792094268799,-2017.8000694580078
30.0,980.5914486283409,-1224.0294354510972,-1554.4109571783713,-488.90919817733766,-770.5439481811524,-2010.7786779327394
40.0,984.5234026402958,-1236.0540413728427,-1542.5417335231414,-497.25242808914186,-783.9736002502441,-2003.665725631714
50.0,988.409895928205,-1248.0225818374727,-1530.6022817951514,-505.5730194664001,-797.3675601654053,-1996.4615518875123
60.0,992.2507643183111,-1259.9345218743542,-1518.5931607089656,-513.8705984992981,-810.7252260131836,-1989.1665044326783
70.0,996.0458480174563,-1271.789332099345,-1506.5149352388175,-522.14479372406,-824.0459996032715,-1981.7809393615723
80.0,999.7949916312082,-1283.5864887945875,-1494.3681765262527,-530.3952360725402,-837.3292865600586,-1974.3052210693359
90.0,1003.4980441357086,-1295.3254739877796,-1482.153461749004,-538.6215589714051,-850.574496383667,-1966.7397221374513
100.0,1007.1548589734086,-1307.005775563506,-1469.8713739941331,-546.8233983726501,-863.7810426330566,-1959.084823272705
110.0,1010.7652940222558,-1318.6268873438519,-1457.5225021680637,-555.0003928489685,-876.9483429718017,-1951.340913230896
120.0,1014.3292116757755,-1330.1883091912682,-1445.1074408540615,-563.1521836395264,-890.0758193359375,-1943.5083887329101
130.0,1017.8464787901775,-1341.6895470671966,-1432.626790200279,-571.2784147262573,-903.1628979644776,-1935.5876543579102
140.0,1021.3169667477498,-1353.130113141337,-1420.081155789786,-579.3787328948974,-916.2090095520019,-1927.579122467041
150.0,1024.7405514633758,-1364.5095258564925,-1407.4711485327173,-587.4527877922058,-929.2135893249512,-1919.483213119507
160.0,1028.117113411416,-1375.8273100169604,-1394.797384519812,-595.5002319831848,-942.1760771636963,-1911.3003539657593
170.0,1031.44653760418,-1387.082996856291,-1382.060484898822,-603.5207210273743,-955.0959176635743,-1903.030980140686
180.0,1034.7287136551654,-1398.2761241268458,-1369.2610757649447,-611.5139135169983,-967.9725602722168,-1894.6755342025756
190.0,1037.9635357432423,-1409.4062361575545,-1356.3997879949236,-619.4794711532593,-980.8054593505859,-1886.2344659805299
200.0,1041.1509026417066,-1420.4728839303107,-1343.4772571688732,-627.4170587921143,-993.5940742645264,-1877.7082325286865
210.0,1044.2907177348523,-1431.4756251448994,-1330.4941233675704,-635.3263444938659,-1006.3378695068359,-1869.097297958374
220.0,1047.3828889907086,-1442.4140242790552,-1317.451031110015,-643.2069995918274,-1019.0363147277832,-1860.4021333847045
230.0,1050.4273289946261,-1453.2876526493474,-1304.3486291791698,-651.0586987304688,-1031.6888848571778,-1851.6232167892456
240.0,1053.4239549597007,-1464.096088495209,-1291.187570481311,-658.8811199226379,-1044.2950602111816,-1842.761032913208
250.0,1056.3726886890645,-1474.8389170065773,-1277.9685119472692,-666.6739446105958,-1056.8543265075684,-1833.816073158264
260.0,1059.273456625266,-1485.5157303931212,-1264.692114339871,-674.4368576850891,-1069.3661750183105,-1824.7888354415893
270.0,1062.1261897783133,-1496.1261279254002,-1251.3590421874849,-682.1695475692749,-1081.8301025543212,-1815.679824119568
280.0,1064.930823816071,-1506.6697159978412,-1237.9699635730242,-689.8717062263489,-1094.2456116485596,-1806.489549835205
290.0,1067.6872989755104,-1517.1461081751968,-1224.525550053384,-697.5430292434693,-1106.6122105407715,-1797.2185294265746
300.0,1070.3955600820802,-1527.5549252104797,-1211.026476483349,-705.183215839386,-1118.929413269043,-1787.867285774231
310.0,1073.0555565806217,-1537.8957951243892,-1197.4734208961067,-712.7919689216614,-1131.1967397766114,-1778.4363477172851
320.0,1075.6672424692554,-1548.1683532276402,-1183.8670643624098,-720.368995136261,-1143.413715927124,-1768.9262499084473
330.0,1078.2305763090378,-1558.3722421439043,-1170.2080908340856,-727.9140048904419,-1155.5798735809326,-1759.3375326766968
340.0,1080.7455212586156,-1568.507111875661,-1156.4971870250279,-735.426712387085,-1167.6947507019042,-1749.6707419433594
350.0,1083.2120449518436,-1578.5726197930317,-1142.7350422652614,-742.9068356819153,-1179.7578913116456,-1739.9264290466308
360.0,1085.630119597314,-1588.56843070306,-1128.9223483521002,-750.3540966949463,-1191.7688456573487,-1730.1051506500244
370.0,1087.99972189575,-1598.4942168501761,-1115.059799421023,-757.7682212562561,-1203.7271701965333,-1720.2074685974121
380.0,1090.3208330415541,-1608.3496579499113,-1101.1480917961528,-765.1489391326904,-1215.6324276733399,-1710.2339497833252
390.0,1092.5934387155307,-1618.1344412181911,-1087.187923853522,-772.4959840583801,-1227.4841871795654,-1700.1851660308837
400.0,1094.817529005038,-1627.8482613501835,-1073.1799959051461,-779.8090937652588,-1239.2820241241454,-1690.0616939544677
410.0,1096.993098494714,-1637.4908206016823,-1059.125010015986,-787.0880100021362,-1251.0255204162597,-1679.8641148376464
420.0,1099.1201461175988,-1647.061828735726,-1045.0236699099764,-794.3324785690307,-1262.7142643585205,-1669.5930144882202
430.0,1101.1986752203063,-1656.561003087446,-1030.8766807843656,-801.5422493438721,-1274.3478507995605,-1659.248983100891
440.0,1103.2286934948804,-1665.9880685209296,-1016.6847492354975,-808.7170762825012,-1285.9258810882568,-1648.8326151580811
450.0,1105.210212975436,-1675.342757485424,-1002.4485830478172,-815.8567174682618,-1297.447963180542,-1638.3445092468262
460.0,1107.143249970296,-1684.6248099771133,-988.1688911266217,-822.9609351158142,-1308.913711593628,-1627.7852679672242
470.0,1109.0278251083614,-1693.8339735768436,-973.8463833172316,-830.0294955863952,-1320.3227475280762,-1617.1554977874755
480.0,1110.863963235502,-1702.9700034209952,-959.4817702808454,-837.0621694145202,-1331.6746988220216,-1606.4558088912963
490.0,1112.651693371599,-1712.0326621867841,-945.0757633885337,-844.0587313194275,-1342.969199951172,-1595.6868150634766
500.0,1114.3910487899543,-1721.0217201344244,-930.6290745361389,-851.0189602050781,-1354.2058921813964,-1584.8491335525512
510.0,1116.0820668568417,-1729.9369550511913,-916.1424160630886,-857.9426391983033,-1365.3844234466553,-1573.9433849334716
520.0,1117.7247890790618,-1738.7781522642654,-901.6165005921177,-864.8295556335449,-1376.5044484558105,-1562.9701929779053
530.0,1119.3192610052379,-1747.5451046134542,-887.0520409121037,-871.679501083374,-1387.5656286468507,-1551.9301845092773
540.0,1120.8655322695845,-1756.2376124564942,-872.4497498305842,-878.4922713470459,-1398.5676322784425,-1540.8239892807007
550.0,1122.363656463659,-1764.8554836141236,-857.810340088459,-885.2676664657592,-1409.510134338379,-1529.652239845276
560.0,1123.8136911604636,-1773.398533392007,-843.1345241907975,-892.005490737915,-1420.3928166351318,-1518.4155714111328
570.0,1125.2156978825285,-1781.866584538256,-828.4230142944904,-898.705552696228,-1431.2153677978515,-1507.1146217193605
580.0,1126.569741998823,-1790.2594672176886,-813.6765220839529,-905.3676651420593,-1441.977483230591,-1495.7500308914184
590.0,1127.8758927509455,-1798.577018991405,-798.8957586766713,-911.9916451187133,-1452.678865158081,-1484.3224413452149
600.0,1129.1342231599172,-1806.819084768977,-784.0814344512581,-918.5773139228821,-1463.3192225952148,-1472.8324975967407
610.0,1130.3448100132084,-1814.9855168131655,-769.234258992115,-925.1244971122742,-1473.8982713623047,-1461.280846206665
620.0,1131.5077338273804,-1823.0761746769383,-754.3549408938665,-931.6330244750976,-1484.4157341003418,-1449.6681355743408
630.0,1132.6230787807153,-1831.0909251913401,-739.4441877217647,-938.1027300605774,-1494.8713402252197,-1437.99501587677
640.0,1133.6909326965929,-1839.029642413122,-724.5027058386673,-944.5334521408081,-1505.264825958252,-1426.2621388931275
650.0,1134.7113869528343,-1846.8922075853911,-709.5312003292686,-950.9250332260132,-1515.5959342651367,-1414.4701578979493
660.0,1135.6845364800133,-1854.6785091079144,-694.5303748760444,-957.2773200454712,-1525.8644148864746,-1402.6197275390625
670.0,1136.6104797212436,-1862.3884425033286,-679.5009316324072,-963.5901635437011,-1536.0700243377685,-1390.7115037002563
680.0,1137.489318524218,-1870.0219103460493,-664.4435711662551,-969.8634188652038,-1546.212525817871,-1378.7461434020995
690.0,1138.3211581705184,-1877.5788222450526,-649.3589922759244,-976.0969453468323,-1556.2916892852784,-1366.7243046340943
700.0,1139.1061072683199,-1885.0590947797048,-634.2478919549715,-982.2906064987183,-1566.3072913665771,-1354.6466462783812
710.0,1139.8442777329599,-1892.4626514513238,-619.1109652654139,-988.444269996643,-1576.2591153564454,-1342.5138279724122
720.0,1140.535784737053,-1899.7894226554042,-603.9489052252221,-994.5578076667786,-1586.1469512176513,-1330.3265099868775
730.0,1141.1807466593575,-1907.0393456066272,-588.7624027134335,-1000.6310954627991,-1595.9705955352783,-1318.0853531036378
740.0,1141.7792850164117,-1914.2123642906054,-573.5521463889644,-1006.6640134620667,-1605.7298514709473,-1305.791018508911
750.0,1142.3315244382434,-1921.308429412661,-558.3188225927677,-1012.6564458236694,-1615.4245287628173,-1293.4441676864624
760.0,1142.837592616958,-1928.3274983600886,-543.0631152123063,-1018.6082808036804,-1625.0544437103272,-1281.0454622650147
770.0,1143.2976202467573,-1935.2695351078958,-527.7857056555075,-1024.5194106941224,-1634.6194190979004,-1268.5955639572144
780.0,1143.7117409706707,-1942.134510196734,-512.4872727094139,-1030.3897318382262,-1644.1192841949462,-1256.0951344070434
790.0,1144.0800913060907,-1948.9224006346294,-497.1684925055326,-1036.2191445846559,-1653.5538746643067,-1243.5448351135253
800.0,1144.4028106782628,-1955.6331899013599,-481.83003835112044,-1042.0075532798767,-1662.9230326538086,-1230.9453272857666
810.0,1144.6800412570187,-1962.2668678023529,-466.47258072803834,-1047.754866230011,-1672.2266065979004,-1218.2972717590333
820.0,1144.9119280063544,-1968.8234304840728,-451.0967871806066,-1053.4609956855775,-1681.4644513092042,-1205.6013289108275
830.0,1145.098618558934,-1975.3028803267227,-435.7033222016714,-1059.1258578186034,-1690.6364278717042,-1192.858158493042
840.0,1145.2402631872249,-1981.705225866508,-420.29284722863383,-1064.7493726768494,-1699.742403579712,-1180.0684196014404
850.0,1145.3370147653523,-1988.0304817863503,-404.8660204835711,-1070.3314641914367,-1708.782251968384,-1167.2327705154419
860.0,1145.3890287253669,-1994.2786687996215,-389.4234969672774,-1075.8720601081848,-1717.755852722168,-1154.3518686523437
870.0,1145.396462969938,-2000.4498136047116,-373.96592834970915,-1081.3710919914245,-1726.6630916290283,-1141.4263704299926
880.0,1145.359477833434,-2006.5439488060938,-358.49396291082934,-1086.8284951782227,-1735.5038605346679,-1128.4569311828614
890.0,1145.278236056206,-2012.5611128657745,-343.00824546229313,-1092.2442087554932,-1744.2780573272705,-1115.4442050704956
900.0,1145.1529026932299,-2018.5013499964195,-327.50941730443134,-1097.618175518036,-1752.9855858306885,-1102.388844985962
910.0,1144.983645103517,-2024.3647101398417,-311.998116143187,-1102.9503419532775,-1761.6263558197022,-1089.2915024719239
920.0,1144.7706328393608,-2030.1512488499177,-296.474976031684,-1108.240658203125,-1770.2002828979491,-1076.152827606201
930.0,1144.5140376878887,-2035.861027268278,-280.9406273114269,-1113.4890780181884,-1778.7072885437012,-1062.9734689559937
940.0,1144.2140335116742,-2041.4941119948082,-265.3956965425599,-1118.6955587463378,-1787.1472999420166,-1049.7540734329223
950.0,1143.8707962730546,-2047.0505750709438,-249.84080647908127,-1123.8600612869263,-1795.5202500152589,-1036.495286277771
960.0,1143.484503965686,-2052.530493877291,-234.27657597878576,-1128.9825500564575,-1803.8260773468019,-1023.1977509307861
970.0,1143.0553365343326,-2057.93395105801,-218.7036199554205,-1134.062992958069,-1812.0647261047363,-1009.8621089477539
980.0,1142.583475878389,-2063.261034471565,-203.12254935710016,-1139.1013613433838,-1820.2361460266113,-996.4889999694824
990.0,1142.06910574891,-2068.511837082533,-187.53397109492798,-1144.0976299781798,-1828.340292312622,-983.0790615997314
1000.0,1141.5124117309826,-2073.686456922294,-171.93848797319666,-1149.0517770080567,-1836.3771256256105,-969.6329293289184
1010.0,1140.9135811663944,-2078.784996983361,-156.33669870147585,-1153.963783920288,-1844.3466119689942,-956.1512364959717
1020.0,1140.2728031382765,-2083.8075651698614,-140.72919780366414,-1158.833635509491,-1852.2487226867677,-942.6346141891479
1030.0,1139.5902684093421,-2088.754274209148,-125.11657558457239,-1163.6613198318482,-1860.083434387207,-929.0836911773681
1040.0,1138.8661693444935,-2093.6252415766785,-109.49941811594775,-1168.4468281822205,-1867.8507288513183,-915.4990938568116
1050.0,1138.1006999119977,-2098.4205894370007,-93.87830715987157,-1173.1901550483703,-1875.550593032837,-901.8814461669922
1060.0,1137.2940555700966,-2103.1404445219146,-78.25382017845311,-1177.8912980690002,-1883.1830189056398,-888.2313695373535
1070.0,1136.4464333078345,-2107.7849381339192,-62.62653024191828,-1182.5502580032348,-1890.748003540039,-874.5494828186036
1080.0,1135.5580315147165,-2112.3542059918736,-46.997006055760544,-1187.1670386886597,-1898.245548904419,-860.8364022293091
1090.0,1134.6290499630372,-2116.8483882024843,-31.36581187807373,-1191.7416470069886,-1905.6756618804932,-847.0927412719726
1100.0,1133.659689777699,-2121.2676291725543,-15.733507528448127,-1196.2740928382873,-1913.0383541870117,-833.3191107101441
1110.0,1132.6501533679716,-2125.6120775275176,-0.10064834726625121,-1200.7643890266418,-1920.3336423034668,-819.5161184921265
1120.0,1131.6006443881417,-2129.881886045856,15.532214842460352,-1205.2125513420106,-1927.5615474243164,-805.6843696899414
1130.0,1130.5113677176284,-2134.077211588421,31.16453574480163,-1209.6185984306335,-1934.722095413208,-791.824466468811
1140.0,1129.3825293419202,-2138.1982149945584,46.79577261571656,-1213.9825517959596,-1941.8153166656493,-777.9370080032348
1150.0,1128.2143363939078,-2142.245061049306,62.42538828759291,-1218.3044357414246,-1948.8412461395264,-764.0225904617309
1160.0,1127.0069970713207,-2146.217918381984,78.05285019831545,-1222.5842773361205,-1955.799923248291,-750.081806930542
1170.0,1125.7607205877691,-2150.1169593936143,93.67763037540263,-1226.8221063728333,-1962.691391784668,-736.1152473983765
1180.0,1124.4757171196559,-2153.942360195482,109.29920550269448,-1231.0179553451537,-1969.515699874878,-722.1234986648559
1190.0,1123.1521978046758,-2157.6943005218136,124.91705688153161,-1235.1718593788146,-1976.2728999176024,-708.1071443557739
1200.0,1121.7903746504637,-2161.3729636624653,140.53067049302405,-1239.2838562164306,-1982.9630485076905,-694.0667648239136
1210.0,1120.3904605603097,-2164.978536403069,156.13953699102683,-1243.3539861602783,-1989.5862064208984,-680.0029371490479
1220.0,1118.9526691816104,-2168.5112089217496,171.74315169424423,-1247.3822920570374,-1996.142438446045,-665.9162350769043
1230.0,1117.477214983038,-2171.9711747425386,187.341014616261,-1251.3688192253112,-2002.6318134307862,-651.8072290039063
1240.0,1115.964313147029,-2175.358630668049,202.93263048107423,-1255.313615447998,-2009.0544041748046,-637.6764859161377
1250.0,1114.4141795464209,-2178.673776675399,218.51750871371374,-1259.2167309036254,-2015.4102873535155,-623.5245693664551
1260.0,1112.8270307029882,-2181.9168158792622,234.09516344363277,-1263.0782181510926,-2021.69954347229,-609.3520394515991
1270.0,1111.203083734502,-2185.087954444551,249.66511352401355,-1266.8981320838927,-2027.922256790161,-595.159452758789
1280.0,1109.5425563525685,-2188.187401516063,265.22688251319505,-1270.676529876709,-2034.078515274048,-580.9473623657227
1290.0,1107.845666806879,-2191.2153691692547,280.77999872028585,-1274.4134709663392,-2040.1684105529785,-566.7163177719116
1300.0,1106.1126338160623,-2194.172072306039,296.3239951306907,-1278.1090170059204,-2046.1920377807617,-552.4668649215698
1310.0,1104.3436765878648,-2197.0577286117023,311.85840948713866,-1281.7632318115234,-2052.1494956665038,-538.1995461273193
1320.0,1102.5390147531186,-2199.872558487985,327.38278424158926,-1285.3761813468934,-2058.040886367798,-523.9149000778199
1330.0,1100.6988683284637,-2202.616784982822,342.8966665521586,-1288.9479336776733,-2063.8663154296873,-509.6134618148804
1340.0,1098.8234576602958,-2205.2906336924693,358.39960828234945,-1292.4785589179992,-2069.625891693115,-495.2957626953125
1350.0,1096.9130034478164,-2207.8943327464367,373.8911660205705,-1295.9681292114258,-2075.3197273101805,-480.9623303756714
1360.0,1094.9677266680544,-2210.428112720936,389.3709010526394,-1299.416718688965,-2080.9479376373292,-466.61368879699705
1370.0,1092.9878485333963,-2212.8922065501515,404.83837933296513,-1302.8244034233094,-2086.5106411437987,-452.25035817718503
1380.0,1090.973590508783,-2215.286849504255,420.29317154482646,-1306.1912613945008,-2092.0079594421386,-437.87285495758056
1390.0,1088.9251742037502,-2217.612279084208,435.73485298769094,-1309.5173724632264,-2097.4400171051025,-423.4816918487549
1400.0,1086.842821437916,-2219.868735003811,451.16300369561674,-1312.8028183174133,-2102.8069417572024,-409.07737773895263
1410.0,1084.7267540940638,-2222.0564590745316,466.57720828604914,-1316.0476824493408,-2108.108863845825,-394.66041776275637
1420.0,1082.5771941817034,-2224.175695177448,481.9770560724834,-1319.2520501060485,-2113.3459167175292,-380.2313132095337
1430.0,1080.3943637978612,-2226.226689227477,497.36214097856504,-1322.4160082702638,-2118.518236541748,-365.79056158447264
1440.0,1078.1784850119907,-2228.209689029551,512.7320615293899,-1325.5396456069946,-2123.6259621429444,-351.3386565475464
1450.0,1075.929779960701,-2230.124944315006,528.0864208775631,-1328.6230524368286,-2128.669235107422,-336.876087928772
1460.0,1073.6484707104735,-2231.9727066074984,543.4248267480048,-1331.666320701599,-2133.648199584961,-322.40334170532225
1470.0,1071.334779312428,-2233.7532292191418,558.7468914405013,-1334.669543926239,-2138.563002334595,-307.9209000167847
1480.0,1068.9889277170435,-2235.4667671572774,574.0522318035984,-1337.6328171844482,-2143.413792602539,-293.42924114227293
1490.0,1066.6111377601792,-2237.1135770712553,589.3404692164291,-1340.5562370643615,-2148.2007220764162,-278.9288395004273
1500.0,1064.2016311687457,-2238.6939172133266,604.611229589224,-1343.4399016342163,-2152.923944869995,-264.42016564178465
1510.0,1061.760629511219,-2240.2080473817496,619.864143319407,-1346.2839104080201,-2157.5836174468996,-249.90368626403807
1520.0,1059.2883541538547,-2241.6562288437763,635.0988452971205,-1349.088364315033,-2162.1798985443115,-235.37986417388916
1530.0,1056.7850262646068,-2243.038724301114,650.3149748576128,-1351.8533656654358,-2166.712949142456,-220.8491583251953
1540.0,1054.250866783895,-2244.355797833281,665.5121757841426,-1354.5790181121827,-2171.1829324188234,-206.31202379608155
1550.0,1051.6860963870558,-2245.6077148390523,680.6900962713562,-1357.265426628113,-2175.590013671875,-191.76891179656982
1560.0,1049.0909354903597,-2246.7947419931534,695.8483889185125,-1359.9126974601745,-2179.934360305786,-177.2202696685791
1570.0,1046.4656041696396,-2247.917147174251,710.9867106684419,-1362.5209381103516,-2184.216141708374,-162.66654090118408
1580.0,1043.8103222254044,-2248.9751994575413,726.1047228512439,-1365.0902573013307,-2188.435529312134,-148.10816510772705
1590.0,1041.1253090674027,-2249.96916900822,741.2020911053987,-1367.6207649383546,-2192.5926964263917,-133.54557804107665
1600.0,1038.4107837539984,-2250.8993270706655,756.2784853619452,-1370.1125720863342,-2196.6878182525634,-118.97921161651611
