sat1Name,LLO-26
sat1Smaj,3416.853
sat1Ecc,0.3776681284090724
sat1Inc,90.62035376116629
sat1RAAN,238.32899944415544
sat1ArgPer,293.40366006662873
sat1TrAnom,0
Time[EpSec],xF[km],yF[km],zF[km],xI[km],yI[km],zI[km]
0.0,963.4840104312937,-1137.6094408426616,-1516.308197124126,-425.48099953842166,-729.9354549102783,-1951.3603915252686
10.0,967.5974666204801,-1150.0914320123163,-1504.2536836215718,-434.12303450775147,-743.7969463348388,-1944.2318785629272
20.0,971.6609229016134,-1162.5149985018684,-1492.1224682894922,-442.74293366622925,-757.6205117492676,-1937.004229751587
30.0,975.6741794983551,-1174.8795093100491,-1479.9151762634115,-451.34025944519044,-771.4054496459961,-1929.6778221588136
40.0,979.6370421670389,-1187.1843400353491,-1467.6324408286782,-459.914576839447,-785.1510629119873,-1922.2530435409546
50.0,983.5493221702138,-1199.4288729466907,-1455.2749032557947,-468.46545348358154,-798.8566589050293,-1914.7302921981811
60.0,987.4108363436984,-1211.6124971632207,-1442.8432126446683,-476.99245977401733,-812.5215496520996,-1907.109976890564
70.0,991.2214071928357,-1223.7346087863991,-1430.338025770059,-485.4951689338684,-826.1450520477295,-1899.3925167541504
80.0,994.9808628051582,-1235.7946109987788,-1417.760006954555,-493.9731571350098,-839.7264878845215,-1891.578341178894
90.0,998.6890370251185,-1247.791914227863,-1405.1098278650181,-502.42600356292724,-853.2651841430664,-1883.6678897094725
100.0,1002.3457693609831,-1259.7259362347852,-1392.3881674057202,-510.85329052734374,-866.7604730072021,-1875.6616119384767
110.0,1005.9509050752803,-1271.5961022545805,-1379.5957115152669,-519.2546035461426,-880.2116920776367,-1867.559967376709
120.0,1009.504295221751,-1283.4018451038698,-1366.733153021052,-527.6295314178467,-893.6181845092774,-1859.363425354004
130.0,1013.0057966368862,-1295.1426053062253,-1353.8011914634678,-535.9776663322449,-906.9792991333007,-1851.072464881897
140.0,1016.4552719486004,-1306.81783117607,-1340.8005329409223,-544.2986039390564,-920.2943905639648,-1842.6875745315551
150.0,1019.8525896402582,-1318.4269789445948,-1327.731889918474,-552.5919434280396,-933.5628193817139,-1834.2092523040772
160.0,1023.1976240525753,-1329.9695128773624,-1314.595981066469,-560.8572876243592,-946.783952255249,-1825.6380055084228
170.0,1026.4902553493614,-1341.4449053290432,-1301.3935310947206,-569.0942430610656,-959.9571620025635,-1816.9743506088257
180.0,1029.7303695912237,-1352.8526368734586,-1288.1252705555687,-577.30242004776,-973.0818277893067,-1808.2188130950929
190.0,1032.917858758674,-1364.1921964162184,-1274.7919356697298,-585.481432762146,-986.1573352661133,-1799.3719273529052
200.0,1036.0526206412749,-1375.4630812044236,-1261.3942681544634,-593.6308993148804,-999.1830765533447,-1790.4342364730835
210.0,1039.1345589889763,-1386.664797007882,-1247.9330150467472,-601.7504418258667,-1012.1584505157471,-1781.406292175293
220.0,1042.1635834367012,-1397.7968581460902,-1234.4089284998113,-609.8396864929199,-1025.0828627929689,-1772.2886546020509
230.0,1045.1396094950612,-1408.8587875588316,-1220.822765612817,-617.8982636604309,-1037.9557258911134,-1763.081892173767
240.0,1048.0625585833468,-1419.8501169122173,-1207.175288244392,-625.9258078842163,-1050.7764593353272,-1753.786581451416
250.0,1050.9323580120981,-1430.7703866555987,-1193.4672628338722,-633.9219580078125,-1063.5444897460939,-1744.4033069763184
260.0,1053.7489409652585,-1441.6191460759408,-1179.6994602103719,-641.8863572044372,-1076.259250930786,-1734.932661102295
270.0,1056.5122465146044,-1452.3959533894126,-1165.8726553694435,-649.8186530609131,-1088.9201840209962,-1725.375243812561
280.0,1059.2222195853763,-1463.100375765229,-1151.9876273548655,-657.7184976158142,-1101.5267375030517,-1715.7316626052857
290.0,1061.8788109551642,-1473.731989404552,-1138.0451590003547,-665.5855474281311,-1114.0783673553467,-1706.0025322723388
300.0,1064.4819772370895,-1484.2903795959567,-1124.0460368063743,-673.419463634491,-1126.574537109375,-1696.1884747924805
310.0,1067.0316808561636,-1494.7751407398007,-1109.9910506787069,-681.2199119911194,-1139.0147179412843,-1686.2901190872192
320.0,1069.5278900315293,-1505.1858764059664,-1095.8809938123923,-688.986562927246,-1151.3983887329102,-1676.308100921631
330.0,1071.970578748518,-1515.5221993718537,-1081.7166624370302,-696.7190916023254,-1163.72503616333,-1666.2430626678467
340.0,1074.3597267695507,-1525.7837316775947,-1067.4988556753044,-704.4171779441833,-1175.9941548004151,-1656.095653190613
350.0,1076.6953195577833,-1535.9701046199632,-1053.228375338921,-712.0805066871643,-1188.205247116089,-1645.866527633667
360.0,1078.9773482608389,-1546.08095880226,-1038.9060257162237,-719.7087674293518,-1200.357823577881,-1635.556347229004
370.0,1081.2058097294669,-1556.1159441752243,-1024.532613423904,-727.3016546592712,-1212.4514027404784,-1625.1657791748046
380.0,1083.3807064171947,-1566.0747200237656,-1010.1089471875242,-734.8588677978515,-1224.4855112457276,-1614.6954963989258
390.0,1085.502046387684,-1575.9569550093602,-995.635837671917,-742.3801112327576,-1236.4596839141846,-1604.1461774139404
400.0,1087.5698432478416,-1585.7623271691948,-981.1140972982049,-749.8650943603516,-1248.373463760376,-1593.5185061264037
410.0,1089.5841161675437,-1595.4905239395412,-966.5445400407305,-757.3135315933228,-1260.2264020996095,-1582.813171661377
420.0,1091.5448897722476,-1605.141242162561,-951.927981255231,-764.7251424255371,-1272.0180585327148,-1572.030868171692
430.0,1093.4521941430967,-1614.714188056682,-937.2652374796842,-772.0996514129639,-1283.7480010070801,-1561.1722946472169
440.0,1095.3060647684438,-1624.2090772741517,-922.5571262883265,-779.4367882499695,-1295.4158058624269,-1550.238154777527
450.0,1097.1065424793167,-1633.625634824581,-907.804466066651,-786.7362877388,-1307.0210578308106,-1539.2291567077637
460.0,1098.8536734313457,-1642.9635951424143,-893.0080758610014,-793.9978898582458,-1318.563350112915,-1528.1460129089355
470.0,1100.5475090314762,-1652.2227020055484,-878.168775200305,-801.2213397407531,-1330.0422843475342,-1516.9894399719237
480.0,1102.188105920883,-1661.402708585295,-863.2873838908877,-808.4063877220153,-1341.457470703125,-1505.7601584243776
490.0,1103.775525900311,-1670.5033773794605,-848.3647218591979,-815.5527893257141,-1352.80852784729,-1494.4588925476073
500.0,1105.309835856244,-1679.5244802011584,-833.4016090229251,-822.6603052978516,-1364.0950829315186,-1483.0863702316285
510.0,1106.791107755046,-1688.4657981654518,-818.3988650234821,-829.7287016029358,-1375.3167716827393,-1471.6433227233886
520.0,1108.2194185854842,-1697.327121679214,-803.3573091397499,-836.7577494430542,-1386.4732383880614,-1460.130484527588
530.0,1109.5948502368676,-1706.108250352597,-788.2777600858616,-843.7472252502441,-1397.5641358337402,-1448.5485931625367
540.0,1110.9174895396366,-1714.8089930246865,-773.1610358434009,-850.6969106941223,-1408.5891254119872,-1436.8983890228271
550.0,1112.1874281199425,-1723.4291676920927,-758.0079535197722,-857.6065926933288,-1419.547877029419,-1425.1806151885987
560.0,1113.4047623850363,-1731.9686014795307,-742.8193291546318,-864.476063407898,-1430.440069152832,-1413.3960172348022
570.0,1114.5695934615876,-1740.4271305963398,-727.5959775848312,-871.3051202316284,-1441.2653887939452,-1401.5453430786133
580.0,1115.6820271350593,-1748.8046003003833,-712.338712275105,-878.0935657958985,-1452.0235315093994,-1389.6293427963258
590.0,1116.7421737425943,-1757.100864811805,-697.0483451852148,-884.8412079582214,-1462.714201324463,-1377.648768447876
600.0,1117.7501481870659,-1765.3157873227406,-681.7256865727851,-891.5478598060608,-1473.337110824585,-1365.6043739013671
610.0,1118.7060697927632,-1773.4492398744753,-666.3715449052676,-898.2133396263123,-1483.8919810180664,-1353.496914680481
620.0,1119.6100623205803,-1781.5011033808896,-650.9867266426161,-904.8374709205627,-1494.378541442871,-1341.3271477737426
630.0,1120.4622538257818,-1789.4712674834402,-635.5720361553148,-911.4200823631287,-1504.7965300140381,-1329.0958314819336
640.0,1121.2627766270873,-1797.359630548271,-620.1282755444987,-917.9610078125,-1515.145693069458,-1316.8037252426147
650.0,1122.0117672493982,-1805.1660995879463,-604.6562445062325,-924.460086277008,-1525.4257853393556,-1304.4515894699098
660.0,1122.7093663480878,-1812.8905901948497,-589.1567402081731,-930.9171619033814,-1535.6365699005128,-1292.0401854019165
670.0,1123.3557186065557,-1820.5330264461513,-573.6305571569592,-937.3320839538575,-1545.7778180999755,-1279.5702749252318
680.0,1123.9509727182533,-1828.0933408954602,-558.078487046932,-943.7047067985535,-1555.84930960083,-1267.0426204299927
690.0,1124.495281300854,-1835.5714744407815,-542.501318633829,-950.0348898696899,-1565.8508322906494,-1254.4579846343995
700.0,1124.9888008001612,-1842.967376278737,-526.8998376254631,-956.3224976539611,-1575.7821822357178,-1241.8171304473876
710.0,1125.4316914509288,-1850.2810038171997,-511.274826545923,-962.5673996620178,-1585.6431636505126,-1229.1208208084106
720.0,1125.8241171803897,-1857.512322604938,-495.6270646324734,-968.7694704017639,-1595.43358883667,-1216.3698185501098
730.0,1126.1662455604398,-1864.661306244436,-479.9573276927829,-974.9285893440247,-1605.1532781524659,-1203.5648862304688
740.0,1126.4582477211964,-1871.7279363182975,-464.2663879945359,-981.0446409072875,-1614.8020599517822,-1190.706785987854
750.0,1126.7002983020186,-1878.7122023134398,-448.5550141652826,-987.1175144081116,-1624.379770553589,-1177.7962794189452
760.0,1126.892575324341,-1885.6141015010953,-432.82397107712154,-993.1471040458679,-1633.886254119873,-1164.8341274032593
770.0,1127.035260183598,-1892.433638886414,-417.0740197431978,-999.1333088531494,-1643.3213626708985,-1151.8210899963378
780.0,1127.1285375581701,-1899.1708271189423,-401.30591721329756,-1005.0760326728821,-1652.684956008911,-1138.75792628479
790.0,1127.1725952784209,-1905.8256863710187,-385.5204164730217,-1010.9751841239929,-1661.9769015960694,-1125.6453942260741
800.0,1127.1676243788988,-1912.3982442970942,-369.71826633711,-1016.8306765441895,-1671.1970746154784,-1112.4842505569459
810.0,1127.1138188780778,-1918.888535886175,-353.9002113688531,-1022.6424279823303,-1680.3453577575683,-1099.2752506179809
820.0,1127.0113758341338,-1925.2966034139533,-338.06699178078526,-1028.410361125946,-1689.421641281128,-1086.0191482696532
830.0,1126.860495192327,-1931.6224963419747,-322.2193433531376,-1034.1344032974243,-1698.4258228759766,-1072.7166957473755
840.0,1126.6613797245734,-1937.8662711866236,-306.3579973375264,-1039.8144863815307,-1707.3578075866699,-1059.36864352417
850.0,1126.4142350234017,-1944.0279914867608,-290.4836803742078,-1045.4505467948914,-1716.2175078277587,-1045.9757402267455
860.0,1126.1192693197402,-1950.107727640048,-274.5971144203452,-1051.0425254516601,-1725.0048431854248,-1032.5387324752808
870.0,1125.7766935071984,-1956.1055568559293,-258.69901666906253,-1056.5903677062988,-1733.719740447998,-1019.0583648071289
880.0,1125.3867210221424,-1962.0215630346556,-242.79009946985497,-1062.0940233154297,-1742.3621334838867,-1005.5353795394898
890.0,1124.949567789433,-1967.855836678829,-226.87107026107492,-1067.553446395874,-1750.931963180542,-991.9705166702271
900.0,1124.4654521346417,-1973.6084747751734,-210.94263152010484,-1072.9685953712462,-1759.4291773376465,-978.3645137786865
910.0,1123.9345947524203,-1979.2795807361128,-195.00548063009953,-1078.3394329376222,-1767.8537306671142,-964.7181058807373
920.0,1123.357218575172,-1984.8692642317517,-179.0603099148269,-1083.6659259910584,-1776.2055845947266,-951.0320253829956
930.0,1122.7335487653604,-1990.3776411729561,-163.10780648747553,-1088.94804561615,-1784.4847073059082,-937.3070019378662
940.0,1122.0638126107874,-1995.8048335331905,-147.14865227287228,-1094.1857670021056,-1792.691073562622,-923.5437623901367
950.0,1121.3482394800812,-2001.1509693168584,-131.18352386102663,-1099.3790694236754,-1800.824664718628,-909.7430306243897
960.0,1120.587060706517,-2006.4161823857678,-115.21309254903055,-1104.5279361686707,-1808.8854685211181,-895.9055275268555
970.0,1119.7805095986332,-2011.6006124292592,-99.23802421862854,-1109.632354499817,-1816.873479156494,-882.0319708709717
980.0,1118.9288212982474,-2016.7044048108494,-83.25897932245442,-1114.6923156051637,-1824.7886970672607,-868.1230752258301
990.0,1118.0322327446872,-2021.727710476119,-67.27661285209015,-1119.707814540863,-1832.6311288909912,-854.1795518951416
1000.0,1117.0909826230259,-2026.6706858820367,-51.29157423775527,-1124.678850189209,-1840.4007874298095,-840.202108795166
1010.0,1116.1053112889315,-2031.5334928662955,-35.3045073737423,-1129.6054251976013,-1848.0976915130616,-826.1914504241944
1020.0,1115.0754606848336,-2036.3162985421427,-19.31605055556132,-1134.4875459327698,-1855.7218659057617,-812.1482777557374
1030.0,1114.0016742915127,-2041.0192752042583,-3.3268364268440056,-1139.3252224235534,-1863.2733412475586,-798.0732881546021
1040.0,1112.8841970638923,-2045.6426002489238,12.662508013237966,-1144.1184683265685,-1870.7521539611816,-783.9671753463745
1050.0,1111.723275394664,-2050.186456046519,28.65136149071029,-1148.8673008422852,-1878.1583461914063,-769.8306293029785
1060.0,1110.5191570051093,-2054.651029844902,44.63910844626883,-1153.5717406921387,-1885.4919656677246,-755.6643361968994
1070.0,1109.272090900605,-2059.0365136755977,60.6251390669836,-1158.2318120498658,-1892.7530656433105,-741.468978340149
1080.0,1107.9823273287884,-2063.3431042537177,76.60884932683862,-1162.8475424995422,-1899.9417048187256,-727.2452341079712
1090.0,1106.6501177042746,-2067.5710028832154,92.58964099286217,-1167.4189629745483,-1907.0579472503662,-712.9937778930664
1100.0,1105.2757145334533,-2071.720415322531,108.56692164781737,-1171.946107696533,-1914.1018622283937,-698.7152800292969
1110.0,1103.859371397391,-2075.7915517450206,124.54010469210706,-1176.4290141487122,-1921.0735242462158,-684.4104067764282
1120.0,1102.4013428635649,-2079.7846266013325,140.50860941435863,-1180.8677230033875,-1927.9730128936767,-670.0798201980591
1130.0,1100.9018844430457,-2083.6998585228203,156.47186092121353,-1185.262278060913,-1934.800412750244,-655.7241781921387
1140.0,1099.361252509458,-2087.53747023566,172.42929022058135,-1189.6127262268067,-1941.5558133087159,-641.3441343688964
1150.0,1097.7797042736097,-2091.297688465083,188.38033418390293,-1193.9191174354553,-1948.2393088989259,-626.9403380584716
1160.0,1096.1574977228763,-2094.980743825257,204.32443558063673,-1198.1815045967103,-1954.8509985961914,-612.5134342346191
1170.0,1094.4948915799882,-2098.5868707555246,220.26104307534231,-1202.3999435577393,-1961.3909861602783,-598.0640634918213
1180.0,1092.792145173554,-2102.1163073636135,236.18961121292773,-1206.5744930381775,-1967.859379852295,-583.592861984253
1190.0,1091.0495185168536,-2105.5692954272067,252.10960046111023,-1210.7052145957946,-1974.2562925109864,-569.1004614105225
1200.0,1089.2672721451884,-2108.9460802077188,268.0204771708408,-1214.7921725463866,-1980.5818413238526,-554.5874889602661
1210.0,1087.4456670960483,-2112.2469103933695,283.9217135793625,-1218.835433933258,-1986.8361477813721,-540.0545672912598
1220.0,1085.5849649218005,-2115.472038048062,299.81278783721496,-1222.8350684700013,-1993.0193376770019,-525.5023144989013
1230.0,1083.6854275242006,-2118.6217184462685,315.6931839693751,-1226.7911484947203,-1999.131540878296,-510.9313440628052
1240.0,1081.7473172215286,-2121.6962100475675,331.5623918772447,-1230.7037489051818,-2005.1728913726806,-496.3422648620606
1250.0,1079.7708966344276,-2124.695774371574,347.4199073431344,-1234.5729471206664,-2011.1435271148682,-481.73568110656737
1260.0,1077.756428645219,-2127.62067591219,363.26523201408565,-1238.3988230247498,-2017.0435899505615,-467.11219232177734
1270.0,1075.7041763737122,-2130.4711820693165,379.097873377636,-1242.181458919525,-2022.8732255554198,-452.47239334869386
1280.0,1073.6144031313343,-2133.24756304647,394.9173447539188,-1245.9209394683837,-2028.6325833435058,-437.8168743133545
1290.0,1071.487372356823,-2135.9500917787013,410.72316530816784,-1249.617351661682,-2034.3218163909912,-423.1462205810547
1300.0,1069.3233475810694,-2138.5790438270647,426.5148599874773,-1253.270784751892,-2039.9410813293457,-408.46101277923583
1310.0,1067.1225924310095,-2141.1346973305085,442.2919595620699,-1256.88133020401,-2045.490538345337,-393.761826751709
1320.0,1064.8853704870285,-2143.617332869496,458.05400054313395,-1260.4490816612245,-2050.9703509674073,-379.0492335586548
1330.0,1062.6119453384597,-2146.0272334392666,473.80052521317674,-1263.9741348876953,-2056.3806861114504,-364.32379946136473
1340.0,1060.3025805214033,-2148.3646843625725,489.53108158442217,-1267.456587726593,-2061.721713973999,-349.58608592224124
1350.0,1057.957539424217,-2150.6299731479407,505.24522338158414,-1270.8965400352479,-2066.9936078796386,-334.836649559021
1360.0,1055.5770853299096,-2152.82338949893,520.9425100107139,-1274.294093662262,-2072.196544311523,-320.07604219055173
1370.0,1053.1614813312294,-2154.945225180377,536.6225065549186,-1277.6493523864747,-2077.330702774048,-305.30481078338624
1380.0,1050.710990301898,-2156.995773965356,552.2847837291424,-1280.9624218788147,-2082.3962657318116,-290.5234974746704
1390.0,1048.225874867329,-2158.9753315408993,567.928917871027,-1284.2334096450807,-2087.393418533325,-275.7326395492554
1400.0,1045.7063973758131,-2160.8841954572117,583.5544908957726,-1287.4624249916076,-2092.3223493499754,-260.93276946258544
1410.0,1043.1528198289188,-2162.722665030441,599.1610902826571,-1290.6495789794922,-2097.183249069214,-246.12441481018067
1420.0,1040.565403906243,-2164.4910412937315,614.7483090540778,-1293.794984375,-2101.976311279297,-231.3080983428955
1430.0,1037.9444108886144,-2166.1896269145655,630.315745707056,-1296.8987556114196,-2106.7017321472167,-216.48433798980713
1440.0,1035.2901016440987,-2167.8187261183925,645.8630042299998,-1299.9610087394715,-2111.359710372925,-201.65364682006836
1450.0,1032.6027365732282,-2169.3786446239455,661.3896940459292,-1302.981861392975,-2115.950447097778,-186.8165330657959
1460.0,1029.8825756494555,-2170.869689592618,676.8954300042179,-1305.9614327316285,-2120.474145904541,-171.97350012969972
1470.0,1027.1298782841318,-2172.292169534635,692.3798322893158,-1308.8998434257508,-2124.9310126342775,-157.1250466079712
1480.0,1024.3449033769298,-2173.646394254002,707.8425264661164,-1311.7972155838013,-2129.32125541687,-142.27166625213624
1490.0,1021.5279092767443,-2174.9326747994387,723.2831433882421,-1314.6536727333068,-2133.645084579468,-127.41384803009034
1500.0,1018.6791537258474,-2176.1513233686837,738.7013191973527,-1317.4693397712708,-2137.9027125549314,-112.55207608795166
1510.0,1015.7988938611592,-2177.3026532834947,754.0966952543858,-1320.24434292984,-2142.0943538513184,-97.68682981109619
1520.0,1012.8873861659163,-2178.386978887604,769.4689181459145,-1322.978809726715,-2146.220224960327,-82.81858377838135
1530.0,1009.9448864651504,-2179.404615521069,784.8176396027519,-1325.6728689422607,-2150.2805443115235,-67.94780783081055
1540.0,1006.9716498880118,-2180.3558794397745,800.1425165108222,-1328.326650566101,-2154.275532211304,-53.07496703338623
1550.0,1003.9679308652026,-2181.2410877712996,815.4432108237824,-1330.9402857666016,-2158.2054107818603,-38.20052174377442
1560.0,1000.9339830735752,-2182.0605584416217,830.7193895613444,-1333.5139068527221,-2162.0704038848876,-23.324927581787108
1570.0,997.870059411349,-2182.8146101245975,845.9707247642117,-1336.0476472434998,-2165.870737060547,-8.448635452270508
1580.0,994.7764120510728,-2183.503562202381,861.196893443512,-1338.5416414108277,-2169.606637527466,6.427908401489258
1590.0,991.6532923059697,-2184.1277346818706,876.3975775506767,-1340.9960248718262,-2173.278334030151,21.304262428283693
1600.0,988.5009507213109,-2184.687448181308,891.5724639373552,-1343.410934135437,-2176.886056884766,36.179989707946774
1610.0,985.3196369408884,-2185.1830238222456,906.7212443190724,-1345.7865066757201,-2180.4300378112794,51.05465798187256
