sat1Name,LLO-4-1
sat1Smaj,3416.853
sat1Ecc,0.359146
sat1Inc,90.188
sat1RAAN,238.221
sat1ArgPer,291.93
sat1TrAnom,0
Time[EpSec],xF[km],yF[km],zF[km],xI[km],yI[km],zI[km]
0.0,964.1289340162808,-1139.5909343283413,-1602.0584025680096,-425.0215682029724,-698.7071427001953,-2031.2479463500977
10.0,968.3739079544551,-1152.0376828099604,-1590.5800166471518,-433.55210830307004,-712.4358726654053,-2024.6854902191162
20.0,972.573002729533,-1164.4308618029524,-1579.0273576934312,-442.06240354537965,-726.1313352050781,-2018.0284907073974
30.0,976.7260285516293,-1176.7698942516292,-1567.4009707105317,-450.55205809021,-739.7928933563232,-2011.2772657546998
40.0,980.8328001519585,-1189.0542085008924,-1555.7014077756303,-459.0206781959534,-753.4199135894776,-2004.4321424179077
50.0,984.8931367879248,-1201.2832383587056,-1543.9292278494756,-467.46787227249143,-767.011765914917,-1997.4934567108155
60.0,988.9068622961199,-1213.4564232209898,-1532.0849967621907,-475.8932509613037,-780.5678239898682,-1990.4615536346435
70.0,992.8738051302922,-1225.5732081835558,-1520.1692869924705,-484.29642721557616,-794.0874652862549,-1983.336787010193
80.0,996.7937983539028,-1237.6330441430955,-1508.182677628527,-492.6770163803101,-807.5700711517334,-1976.1195194625855
90.0,1000.6666797062861,-1249.6353878898742,-1496.1257542099127,-501.03463625335695,-821.0150269622802,-1968.810122314453
100.0,1004.4922916160771,-1261.5797022130541,-1483.9991086218965,-509.3689071540833,-834.4217222290039,-1961.408975517273
110.0,1008.27048123554,-1273.4654560253553,-1471.80333895641,-517.6794520225525,-847.7895507354737,-1953.9164675598145
120.0,1012.0011004573131,-1285.2921244177553,-1459.5390493776201,-525.9658964576721,-861.1179106292725,-1946.3329953613281
130.0,1015.6840059160377,-1297.0591887704566,-1447.2068500286928,-534.2278688087464,-874.4062045135498,-1938.6589642105102
140.0,1019.3190590417811,-1308.7661368506424,-1434.8073568666466,-542.4650002326965,-887.6538395996093,-1930.894787651062
150.0,1022.9061260724039,-1320.4124628944255,-1422.3411915484426,-550.6769247627258,-900.8602277984619,-1923.040887397766
160.0,1026.4450780440309,-1331.9976676950964,-1409.8089812887054,-558.8632793846131,-914.0247858123779,-1915.0976932220458
170.0,1029.9357908532097,-1343.5212586916552,-1397.2113587358137,-567.0237040863037,-927.1469352722168,-1907.0656428756713
180.0,1033.3781452035948,-1354.9827500251552,-1384.5489618189488,-575.1578419303894,-940.2261027832031,-1898.9451819458009
190.0,1036.7720266793262,-1366.3816626525,-1371.8224336392004,-583.2653391189575,-953.2617200775146,-1890.7367638015746
200.0,1040.1173257459309,-1377.7175244068526,-1359.032422272672,-591.3458450431824,-966.2532241210937,-1882.4408494262696
210.0,1043.4139377240206,-1388.989870075039,-1346.1795806949356,-599.3990123634338,-979.2000571594239,-1874.0579073562621
220.0,1046.6617628143292,-1400.1982414518586,-1333.2645666196365,-607.4244970474243,-992.1016668243408,-1865.5884135513306
230.0,1049.860706119137,-1411.342187420434,-1320.2880423237486,-615.4219584312439,-1004.9575062561036,-1857.0328512573242
240.0,1053.0106776135306,-1422.4212640304988,-1307.2506745381609,-623.3910592918396,-1017.7670341644288,-1848.3917109146118
250.0,1056.1115921904454,-1433.435034536058,-1294.1531342935825,-631.3314658737182,-1030.5297149353028,-1839.6654900360109
260.0,1059.1633696131162,-1444.38306947733,-1280.9960967827585,-639.2428479690552,-1043.2450186920166,-1830.8546930847167
270.0,1062.1659345462058,-1455.2649467253668,-1267.7802411921089,-647.1248789520264,-1055.9124214019776,-1821.9598313369752
280.0,1065.1192165376613,-1466.080251533415,-1254.5062505715653,-654.9772358322143,-1068.5314049377441,-1812.981422767639
290.0,1068.0231500091722,-1476.8285765998744,-1241.1748116985102,-662.7995993118286,-1081.1014571533203,-1803.91999193573
300.0,1070.8776742874857,-1487.5095221203987,-1227.786614889571,-670.5916538162231,-1093.6220720062256,-1794.7760698318482
310.0,1073.6827335128542,-1498.1226957961037,-1214.342353898149,-678.3530875549317,-1106.0927495269775,-1785.5501937561035
320.0,1076.438276737887,-1508.6677129444367,-1200.8427257463268,-686.0835925598144,-1118.512996017456,-1776.2429072189332
330.0,1079.1442578203212,-1519.1441964630644,-1187.2884305723635,-693.7828647193909,-1130.882324005127,-1766.8547597579957
340.0,1081.800635484612,-1529.5517769428366,-1173.680171466705,-701.4506038398742,-1143.2002524108887,-1757.38630683136
350.0,1084.4073732260124,-1539.8900926204456,-1160.0186543751347,-709.0865136566163,-1155.4663064880372,-1747.8381096878052
360.0,1086.9644393867106,-1550.15878949446,-1146.3045878807636,-716.6903018989562,-1167.6800180206299,-1738.2107352142334
370.0,1089.4718070731597,-1560.3575213000083,-1132.53868312228,-724.2616803131103,-1179.8409252777099,-1728.5047558288575
380.0,1091.9294541429401,-1570.48594952765,-1118.7216535951472,-731.8003646850586,-1191.9485730895997,-1718.7207492980956
390.0,1094.3373632201808,-1580.543743507231,-1104.8542150108,-739.3060749053955,-1204.0025129547118,-1708.8592986297608
400.0,1096.6955216477686,-1590.5305803617505,-1090.9370851757017,-746.7785349617004,-1216.002303024292,-1698.92099193573
410.0,1099.0039214456892,-1600.446145060457,-1076.9709838186257,-754.2174730033875,-1227.947508163452,-1688.9064222717286
420.0,1101.2625593254418,-1610.2901304344493,-1062.9566324415412,-761.6226213493347,-1239.8377000274659,-1678.8161875076294
430.0,1103.4714366271132,-1620.0622371590612,-1048.8947542050742,-768.9937165107727,-1251.6724570465087,-1668.6508901977538
440.0,1105.630559339882,-1629.76217381231,-1034.7860737259555,-776.3304992332459,-1263.4513645477296,-1658.4111374130248
450.0,1107.7399380200116,-1639.3896568401792,-1020.6313169884628,-783.6327145080567,-1275.1740147094727,-1648.0975406265259
460.0,1109.7995877812043,-1648.9444105833034,-1006.4312111595583,-790.9001116027832,-1286.8400066375732,-1637.7107155456542
470.0,1111.8095282714503,-1658.4261672503585,-992.1864844632838,-798.1324440574646,-1298.4489463806153,-1627.251281982422
480.0,1113.7697836327154,-1667.8346669640093,-977.8978660422275,-805.3294697418213,-1310.000446975708,-1616.7198637237548
490.0,1115.6803824770097,-1677.1696577249943,-963.5660857840295,-812.4909508399963,-1321.4941284790038,-1606.117088356018
500.0,1117.5413578187251,-1686.4308953920818,-949.1918742338164,-819.6166538734436,-1332.9296179351807,-1595.4435871582032
510.0,1119.3527470887684,-1695.6181437185196,-934.7759623907378,-826.7063497276306,-1344.3065494842529,-1584.6999949264527
520.0,1121.1145920605184,-1704.7311743043638,-920.3190816197241,-833.7598136482238,-1355.6245643157959,-1573.886949859619
530.0,1122.826938814538,-1713.7697665897535,-905.8219634914522,-840.7768252563477,-1366.883310699463,-1563.0050933990478
540.0,1124.4898377031318,-1722.7337078427588,-891.2853396492864,-847.7571685638428,-1378.082444000244,-1552.0550700912477
550.0,1126.1033433341468,-1731.6227931593673,-876.7099416648146,-854.7006319770813,-1389.2216267242432,-1541.0375274505616
560.0,1127.667514469866,-1740.4368253817108,-862.0965009190219,-861.6070082893372,-1400.3005284423828,-1529.9531157989502
570.0,1129.1824140803405,-1749.175615175413,-847.4457484575411,-868.4760947151184,-1411.3188259277345,-1518.802488166809
580.0,1130.6481091599246,-1757.8389808864529,-832.7584148717859,-875.307692867279,-1422.2762029876708,-1507.5863000946044
590.0,1132.0646708531372,-1766.42674862184,-818.0352301385531,-882.1016087646484,-1433.1723506622313,-1496.305209541321
600.0,1133.4321742457837,-1774.9387521325064,-803.276923561428,-888.8576528434753,-1444.006967025757,-1484.9598767395019
610.0,1134.750698450236,-1783.374832839152,-788.4842235450913,-895.5756399345398,-1454.7797573547364,-1473.5509640197754
620.0,1136.0203264653069,-1791.734839776543,-773.6578575566801,-902.255389289856,-1465.4904340057374,-1462.0791357192993
630.0,1137.2411452006359,-1800.0186295547085,-758.798551962295,-908.8967245445251,-1476.1387164764403,-1450.5450580291747
640.0,1138.413245355992,-1808.2260663191014,-743.9070318945712,-915.4994737434387,-1486.7243313446045,-1438.949398826599
650.0,1139.536721436922,-1816.357021728191,-728.9840211781458,-922.0634693145752,-1497.247012298584,-1427.2928276062012
660.0,1140.6116716604608,-1824.41137487835,-714.0302421568806,-928.5885480613708,-1507.7065000915527,-1415.576015274048
670.0,1141.6381979467433,-1832.3890123005776,-699.0464156315568,-935.0745511665344,-1518.1025425567627,-1403.7996340866089
680.0,1142.6164058319266,-1840.2898278858927,-684.0332606816738,-941.5213241653443,-1528.4348945770264,-1391.9643574447632
690.0,1143.546404430319,-1848.1137228389666,-668.9914946264994,-947.9287169456481,-1538.7033180389403,-1380.0708598327637
700.0,1144.4283063644614,-1855.8606056430344,-653.9218328631198,-954.2965837364197,-1548.9075818328859,-1368.1198166427612
710.0,1145.2622277666335,-1863.5303919937737,-638.8249887613961,-960.6247830734253,-1559.0474618530272,-1356.1119040603637
720.0,1146.0482881713783,-1871.12300476322,-623.7016735812948,-966.9131778068543,-1569.1227409362793,-1344.0477989501953
730.0,1146.7866104713908,-1878.6383739287974,-608.5525963580826,-973.1616350784302,-1579.1332088317872,-1331.9281787185669
740.0,1147.4773208897955,-1886.076436517875,-593.3784637760426,-979.3700262908935,-1589.0786622009277,-1319.7537211761476
750.0,1148.1205489092629,-1893.4371365735153,-578.1799801154853,-985.5382271041871,-1598.9589045715331,-1307.52510446167
760.0,1148.7164271828306,-1900.7204250482205,-562.9578471130898,-991.6661174125671,-1608.7737462615967,-1295.2430068588258
770.0,1149.2650915902304,-1907.9262598166545,-547.7127638712252,-997.7535813140869,-1618.5230044708253,-1282.9081067352295
780.0,1149.7666810258497,-1915.0546055293528,-532.4454267914746,-1003.8005071029663,-1628.2065030670167,-1270.5210823822022
790.0,1150.2213374814605,-1922.1054336191069,-517.1565294372253,-1009.8067872314454,-1637.82407270813,-1258.0826119155884
800.0,1150.629205903881,-1929.0787221991159,-501.8467625073923,-1015.7723183021545,-1647.3755506896973,-1245.5933731842042
810.0,1150.9904341974925,-1935.9744560115687,-486.51681365765944,-1021.6970010261535,-1656.8607809906007,-1233.0540435943603
820.0,1151.3051731201308,-1942.7926263547924,-471.1673675190551,-1027.5807402114867,-1666.279614151001,-1220.4653000793458
830.0,1151.5735762687502,-1949.533231021125,-455.79910551091007,-1033.4234447212218,-1675.6319073028565,-1207.8278189086914
840.0,1151.7957999917726,-1956.1962742277437,-440.4127058464865,-1039.2250274658204,-1684.9175240631102,-1195.1422756500244
850.0,1151.9720033479878,-1962.7817665433645,-425.00884340577454,-1044.9854053573608,-1694.1363345184327,-1182.409345024109
860.0,1152.102348047805,-1969.2897248106094,-409.58818966765796,-1050.7044992828369,-1703.2882151641845,-1169.629700805664
870.0,1152.1869984117175,-1975.7201721026158,-394.15141261741076,-1056.382234085083,-1712.3730488891601,-1156.8040157165528
880.0,1152.2261212759909,-1982.073137610595,-378.69917673073115,-1062.0185385169982,-1721.3907248535156,-1143.9329613571167
890.0,1152.2198859918337,-1988.348656617896,-363.2321428155864,-1067.613345226288,-1730.341138534546,-1131.0172080535888
900.0,1152.168464326303,-1994.546770385175,-347.7509680232192,-1073.1665907096863,-1739.2241915893555,-1118.0574248123169
910.0,1152.0720304214349,-2000.6675260912182,-332.25630573473046,-1078.67821528244,-1748.0397918395995,-1105.0542791900634
920.0,1151.9307607394476,-2006.7109767601655,-316.74880551447757,-1084.1481630477906,-1756.7878532104492,-1092.0084372177123
930.0,1151.7448340053209,-2012.6771811974804,-301.2291130364144,-1089.5763818702699,-1765.4682956848144,-1078.9205633010865
940.0,1151.5144311487077,-2018.566203875051,-285.69787004255875,-1094.9628233222961,-1774.081045211792,-1065.7913201370238
950.0,1151.2397352780104,-2024.378114908246,-270.1557142459773,-1100.3074426612854,-1782.626033721924,-1052.6213686141969
960.0,1150.9209315546498,-2030.1129899290638,-254.60327933188225,-1105.610198802948,-1791.1031989593505,-1039.411367744446
970.0,1150.5582072177797,-2035.7709100337672,-239.0411948357645,-1110.8710542564393,-1799.512484527588,-1026.16197454834
980.0,1150.151751497375,-2041.3519617184895,-223.470086155992,-1116.0899751205445,-1807.8538397827149,-1012.8738440246582
990.0,1149.7017555470318,-2046.8562367614834,-207.89057446430473,-1121.266931022644,-1816.1272197570802,-999.5476290206909
1000.0,1149.2084124103678,-2052.283832182956,-192.30327664167365,-1126.4018950920106,-1824.332585144043,-986.1839801559448
1010.0,1148.6719169579596,-2057.6348501484067,-176.70880529162147,-1131.4948439216614,-1832.4699021911622,-972.783545791626
1020.0,1148.09246584886,-2062.909397886438,-161.1077686400756,-1136.5457575187684,-1840.5391426696776,-959.3469719085693
1030.0,1147.470257430649,-2068.107587608262,-145.50077051302569,-1141.5546192855834,-1848.5402837677002,-945.8749020385742
1040.0,1146.8054917715526,-2073.2295364601264,-129.8884103037012,-1146.5214159622192,-1856.4733081054687,-932.3679772338867
1050.0,1146.098370511289,-2078.275366384512,-114.27128292446281,-1151.4461375923156,-1864.338203567505,-918.8268359451293
1060.0,1145.3490969050456,-2083.2452041088936,-98.64997876178485,-1156.3287774925232,-1872.1349633483887,-905.2521139907836
1070.0,1144.55787566701,-2088.139180996191,-83.02508366264415,-1161.169332195282,-1879.8635857696534,-891.6444444656372
1080.0,1143.7249130488694,-2092.9574330458895,-67.39717887058283,-1165.9678014297485,-1887.5240743560792,-878.0044577026367
1090.0,1142.8504166464932,-2097.7001007266003,-51.76684104372887,-1170.7241880607605,-1895.1164376068116,-864.3327811965943
1100.0,1141.9345954677863,-2102.367328969867,-36.13464216986229,-1175.4384980621337,-1902.6406890716553,-850.6300395431518
1110.0,1140.9776598192277,-2106.95926703899,-20.501149569300818,-1180.110740463257,-1910.0968471984863,-836.8968543777465
1120.0,1139.9798212896512,-2111.47606849616,-4.866925865935744,-1184.7409273262024,-1917.4849353179932,-823.1338443374634
1130.0,1138.9412926599518,-2115.917891078402,10.767471035540803,-1189.3290736885072,-1924.8049815216064,-809.3416249847412
1140.0,1137.8622879142147,-2120.2848966522793,26.40148799114069,-1193.8751975250243,-1932.0570186614991,-795.5208087615966
1150.0,1136.7430221395457,-2124.5772511249484,42.03457660566235,-1198.3793197174073,-1939.2410842285155,-781.6720049514771
1160.0,1135.583711501276,-2128.795124351175,57.66619329159847,-1202.8414639968871,-1946.3572203063966,-767.7958195953369
1170.0,1134.3845731951264,-2132.93869007548,73.29579923235858,-1207.2616569137574,-1953.4054734954834,-753.8928554992676
1180.0,1133.1458254111044,-2137.008125853681,88.9228604754483,-1211.6399277915955,-1960.3858948822021,-739.9637121200561
1190.0,1131.867687267671,-2141.003612961887,104.5468478710202,-1215.9763086891173,-1967.2985399169922,-726.0089855804443
1200.0,1130.5503787866505,-2144.925336330612,120.16723711561575,-1220.270834350586,-1974.143468383789,-712.0292686080933
1210.0,1129.194120820729,-2148.7734844539164,135.78350878713047,-1224.523542175293,-1980.9207443084717,-698.0251504592895
1220.0,1127.7991350666357,-2152.548249349248,151.39514831680233,-1228.7344721679688,-1987.6304359436035,-683.9972169418335
1230.0,1126.365643931865,-2156.2498264198657,167.0016460090395,-1232.9036669006348,-1994.272615600586,-669.9460503234864
1240.0,1124.8938705827081,-2159.878414448869,182.60249705806933,-1237.0311714744569,-2000.8473596954345,-655.8722293319702
1250.0,1123.3840388603167,-2163.4342154790834,198.19720156381908,-1241.1170334701537,-2007.354748626709,-641.7763290863037
1260.0,1121.8363732369246,-2166.9174347486555,213.78526449498256,-1245.161302909851,-2013.7948666992188,-627.6589211044311
1270.0,1120.2510987740661,-2170.328280628088,229.3661957343868,-1249.1640322265625,-2020.1678020782472,-613.5205732345581
1280.0,1118.6284410843068,-2173.6669645277047,244.93951004296517,-1253.125276210785,-2026.473646697998,-599.3618496551513
1290.0,1116.9686263257672,-2176.9337008479897,260.5047271222634,-1257.0450919647217,-2032.7124962615967,-585.1833108062744
1300.0,1115.271881121129,-2180.128706899638,276.0613715334741,-1260.9235388832092,-2038.8844501037597,-570.985513420105
1310.0,1113.5384324953889,-2183.252202800676,291.6089727446358,-1264.7606785926819,-2044.989611114502,-556.7690104370117
1320.0,1111.768507930811,-2186.3044114663862,307.14706512047127,-1268.5565749206544,-2051.0280857696534,-542.5343510284424
1330.0,1109.9623352459962,-2189.2855584913054,322.6751879126958,-1272.3112938537597,-2056.9999839782713,-528.2820805435181
1340.0,1108.1201425725505,-2192.195872089775,338.1928852629162,-1276.0249034996032,-2062.905419036865,-514.012740486145
1350.0,1106.2421583517166,-2195.0355830385884,353.69970617019567,-1279.6974740447997,-2068.744507583618,-499.72686853027346
1360.0,1104.3286112952164,-2197.804924606765,369.1952045290533,-1283.329077709198,-2074.5173695526123,-485.4249984588623
1370.0,1102.3797302869175,-2200.504132455059,384.67893907072687,-1286.9197887191772,-2080.22412802124,-471.1076601638794
1380.0,1100.3957444428368,-2203.1334446372434,400.15047338564614,-1290.4696832695008,-2085.8649092712403,-456.77537964630125
1390.0,1098.376883019143,-2205.693101462189,415.60937589923014,-1293.9788394622803,-2091.4398426361086,-442.4286789779663
1400.0,1096.3233753834793,-2208.183345473984,431.05521986714814,-1297.4473372993468,-2096.949060470581,-428.0680762939453
1410.0,1094.2354509798354,-2210.604421358278,446.48758336610285,-1300.8752586212158,-2102.392698074341,-413.6940857696533
1420.0,1092.1133393263715,-2212.9565758996446,461.90604924048256,-1304.2626870765687,-2107.7708936462404,-399.3072176589966
1430.0,1089.9572699606636,-2215.2400579142777,477.3102051688045,-1307.609708087921,-2113.0837882385254,-384.90797820281983
1440.0,1087.7674724167475,-2217.455118179498,492.6996435715172,-1310.9164088096618,-2118.331525665283,-370.49686968994143
1450.0,1085.5441761798354,-2219.6020093740763,508.0739616081684,-1314.1828780937194,-2123.5142524414064,-356.0743904342651
1460.0,1083.287610661624,-2221.68098600808,523.4327612085071,-1317.409206451416,-2128.6321177368163,-341.6410347213745
1470.0,1080.998005209332,-2223.692304392119,538.7756490036414,-1320.59548601532,-2133.6852733459473,-327.1972928695679
1480.0,1078.6755890112297,-2225.636222542319,554.1022363211655,-1323.7418105087281,-2138.6738735656736,-312.743651184082
1490.0,1076.3205911275122,-2227.513000146136,569.4121391701757,-1326.8482752037048,-2143.5980751953125,-298.2805919723511
1500.0,1073.9332404266997,-2229.3228984844964,584.7049782339295,-1329.914976890564,-2148.4580374450684,-283.80859351348874
1510.0,1071.5137655697772,-2231.0661803964126,599.9803788093706,-1332.9420138435364,-2153.253921890259,-269.32813010406494
1520.0,1069.0623949981325,-2232.743110198871,615.2379708309383,-1335.929485771179,-2157.9858924255373,-254.8396720123291
1530.0,1066.5793568680806,-2234.35395364033,630.4773888214015,-1338.8774938087463,-2162.65411517334,-240.34368549346925
1540.0,1064.0648791082015,-2235.8989778717,645.6982718810607,-1341.7861404571534,-2167.2587585144042,-225.8406328125
1550.0,1061.5191892772662,-2237.378451335663,660.9002636529525,-1344.6555295715332,-2171.799992904663,-211.33097220611572
1560.0,1058.9425146319288,-2238.7926437531805,676.0830123109782,-1347.4857663078308,-2176.2779909210203,-196.815157913208
1570.0,1056.3350820793707,-2240.14182607689,691.2461705163947,-1350.276957107544,-2180.6929271850586,-182.2936401901245
1580.0,1053.6971181475915,-2241.4262704114717,706.3893954288359,-1353.029209651947,-2185.044978302002,-167.76686527252198
1590.0,1051.0288489414909,-2242.64624997436,721.5123486345234,-1355.7426328430176,-2189.334322784424,-153.23527542114257
1600.0,1048.3305001768795,-2243.802039044946,736.6146961521915,-1358.4173367500305,-2193.561141052246,-138.69930891418457
1610.0,1045.6022971038128,-2244.8939129149053,751.6961084050785,-1361.0534326019288,-2197.7256153411863,-124.15940003967285
