sat1Name,LLO-3-6
sat1Smaj,3416.853
sat1Ecc,0.359146
sat1Inc,90.188
sat1RAAN,237.721
sat1ArgPer,294.43
sat1TrAnom,0
Time[EpSec],xF[km],yF[km],zF[km],xI[km],yI[km],zI[km]
0.0,979.9220633945636,-1210.3807038754733,-1539.329245349133,-478.10870428085326,-769.1570618591309,-1993.6430736999512
10.0,983.7055421563061,-1222.4825681023196,-1527.3321232213607,-486.59957617950437,-782.5545823822022,-1986.38184034729
20.0,987.4424442811163,-1234.5275488295588,-1515.2636814494429,-495.067726146698,-795.9155612487793,-1979.027852203369
30.0,991.1326017981665,-1246.5150854820217,-1503.124488917402,-503.5127605018616,-809.2393773651123,-1971.581459640503
40.0,994.7758513218334,-1258.4446231983225,-1490.9151212312138,-511.9342878990173,-822.5254134063721,-1964.043021911621
50.0,998.3720340324171,-1270.3156128815403,-1478.6361606637404,-520.331919380188,-835.7730558471679,-1956.4129071044922
60.0,1001.9209957415969,-1282.1275113275801,-1466.2881959704216,-528.7052684555053,-848.9816951446534,-1948.6914920196534
70.0,1005.4225869216568,-1293.8797813490169,-1453.8718223254753,-537.0539511947632,-862.1507258453369,-1940.879162147522
80.0,1008.8766627315892,-1305.5718918668774,-1441.3876411414144,-545.3775862846375,-875.2795467224121,-1932.9763115310668
90.0,1012.2830830147094,-1317.2033179715659,-1428.8362600078444,-553.675795097351,-888.3675608215332,-1924.9833427200317
100.0,1015.6417123527721,-1328.7735410834255,-1416.2182925010143,-561.9482017860413,-901.4141756591797,-1916.9006666488647
110.0,1018.9524200682247,-1340.2820489913206,-1403.5343581090708,-570.1944333267212,-914.4188032684326,-1908.7287025756837
120.0,1022.2150802443693,-1351.7283359763042,-1390.7850820719307,-578.4141196136475,-927.3808603363037,-1900.4678779678345
130.0,1025.4295717558703,-1363.1119028861115,-1377.9710952620305,-586.6068935050964,-940.2997683105468,-1892.1186284179687
140.0,1028.5957782980122,-1374.4322572449992,-1365.0930340245206,-594.7723909034729,-953.1749535369873,-1883.681397529602
150.0,1031.7135883221792,-1385.6889132882557,-1352.15154008415,-602.9102508239746,-966.0058472595215,-1875.1566368179322
160.0,1034.7828951584693,-1396.8813921055043,-1339.147260386377,-611.020115447998,-978.7918858489991,-1866.544805633545
170.0,1037.8035969477355,-1408.009221669977,-1326.080846949077,-619.101630191803,-991.5325108184815,-1857.8463710098267
180.0,1040.7755966958232,-1419.071936958061,-1312.9529567324166,-627.154443775177,-1004.2271689758301,-1849.0618075866698
190.0,1043.6988022305625,-1430.0690799762674,-1299.7642514991705,-635.1782082748413,-1016.8753124542236,-1840.1915974731446
200.0,1046.5731262776817,-1441.000199879151,-1286.5153976860659,-643.1725791816712,-1029.4763988800048,-1831.236230178833
210.0,1049.398486394247,-1451.864852996564,-1273.2070662216358,-651.137215461731,-1042.0298914031982,-1822.1962024307252
220.0,1052.17480500598,-1462.6626029289114,-1259.8399324418228,-659.0717796211243,-1054.5352588043213,-1813.0720181274414
230.0,1054.9020094368504,-1473.3930206135808,-1246.4146758744855,-666.9759377517701,-1066.9919756317138,-1803.8641881637573
240.0,1057.5800318129643,-1484.0556843396387,-1232.9319801511833,-674.8493595848083,-1079.3995221710204,-1794.5732303237914
250.0,1060.2088091995952,-1494.650179868661,-1219.3925328272192,-682.6917185401917,-1091.7573846740722,-1785.1996691818238
260.0,1062.7882834531536,-1505.1761004415437,-1205.797025262425,-690.5026917953492,-1104.0650552978516,-1775.744035949707
270.0,1065.318401307258,-1515.6330468476792,-1192.1461524367473,-698.2819603118896,-1116.322032272339,-1766.206868347168
280.0,1067.7991143649062,-1526.0206274918132,-1178.440612821155,-706.029208896637,-1128.5278199768065,-1756.5887104949952
290.0,1070.230379013042,-1536.3384583965214,-1164.6811082485176,-713.744126247406,-1140.6819289245605,-1746.8901127700806
300.0,1072.6121565071605,-1546.5861632919416,-1150.8683437232037,-721.4264049873352,-1152.7838759460449,-1737.1116316757202
310.0,1074.9444129035928,-1556.763373633772,-1137.0030273000068,-729.075741722107,-1164.8331841888428,-1727.253829711914
320.0,1077.2271190274175,-1566.869728624155,-1123.0858699320725,-736.6918370704651,-1176.8293831634521,-1717.3172752304076
330.0,1079.4602505113,-1576.9048752843557,-1109.1175853175507,-744.2743957138061,-1188.7720088653564,-1707.3025423202514
340.0,1081.6437877780697,-1586.8684684689981,-1095.0988897278448,-751.8231264152527,-1200.6606038360596,-1697.210210647583
350.0,1083.7777159433929,-1596.7601708853012,-1081.0305019120312,-759.3377420883179,-1212.4947171325684,-1687.0408653411864
360.0,1085.862024868933,-1606.5796531228987,-1066.9131428822448,-766.8179598007202,-1224.2739044647217,-1676.7950968170167
370.0,1087.8967091521945,-1616.3265937043234,-1052.7475357976982,-774.2635008239746,-1235.9977282562256,-1666.473500679016
380.0,1089.8817680385605,-1626.000679059039,-1038.534405834807,-781.6740906562806,-1247.6657576141358,-1656.0766775665284
390.0,1091.817205442084,-1635.6016035868,-1024.274479991609,-789.0494590682983,-1259.2775684509277,-1645.6052329940796
400.0,1093.703029906581,-1645.1290696351464,-1009.9684869747861,-796.3893401107788,-1270.832743484497,-1635.059777229309
410.0,1095.539254583072,-1654.582787538055,-995.6171570485818,-803.6934721565246,-1282.3308722991944,-1624.4409251556397
420.0,1097.325897204496,-1663.9624756198655,-981.2212218688752,-810.9615979194641,-1293.7715513916016,-1613.7492961120606
430.0,1099.0629800377483,-1673.267860190616,-966.7814143357714,-818.1934644813538,-1305.154384185791,-1602.9855137405395
440.0,1100.750529879248,-1682.4986755551156,-952.2984684771898,-825.3888233032227,-1316.4789810791015,-1592.1502058792114
450.0,1102.3885779880939,-1691.6546640218774,-937.7731192870364,-832.547430267334,-1327.7449594573975,-1581.2440043945312
460.0,1103.977160120188,-1700.735575908201,-923.2061025636102,-839.669045665741,-1338.951943786621,-1570.2675450439453
470.0,1105.5163163827892,-1709.7411694958103,-908.5981547884211,-846.7534342460632,-1350.0995655212403,-1559.2214673080443
480.0,1107.0060912960635,-1718.671211068434,-893.9500129880576,-853.8003652076721,-1361.1874632263184,-1548.1064142913817
490.0,1108.4465337469455,-1727.5254749114786,-879.2624145598113,-860.8096122283936,-1372.2152826080323,-1536.923032546997
500.0,1109.837696871183,-1736.3037432331344,-864.5360971655521,-867.780953464508,-1383.1826764221191,-1525.671971923828
510.0,1111.1796381194647,-1745.0058062257083,-849.7717985873055,-874.7141715698242,-1394.089304611206,-1514.3538854675294
520.0,1112.4724191405412,-1753.6314619938164,-834.97025656013,-881.6090536956788,-1404.9348342437745,-1502.9694292144775
530.0,1113.7161057561514,-1762.1805165650687,-820.1322086953057,-888.4653915138244,-1415.718939529419,-1491.5192621154786
540.0,1114.910767978858,-1770.6527838819886,-805.2583922622575,-895.2829812088013,-1426.4413019104004,-1480.0040458374024
550.0,1116.056479858804,-1779.0480857235195,-790.3495441420253,-902.0616234855652,-1437.1016099243163,-1468.424444656372
560.0,1117.1533195327809,-1787.3662517237628,-775.4064006256002,-908.8011235694885,-1447.6995593261718,-1456.781125289917
570.0,1118.2013691479792,-1795.6071193471346,-760.4296973124116,-915.5012912216187,-1458.2348530578613,-1445.0747567749024
580.0,1119.2007147918841,-1803.7705338206592,-745.4201690012552,-922.1619407196044,-1468.7072012023925,-1433.3060103302003
590.0,1120.1514465000753,-1811.8563481358585,-730.3785495059958,-928.7828908615112,-1479.1163210601806,-1421.4755591888427
600.0,1121.0536581627175,-1819.8644230038515,-715.3055716068494,-935.3639649772645,-1489.461937072754,-1409.584078514099
610.0,1121.9074474771112,-1827.7946267943012,-700.2019668406323,-941.904990901947,-1499.7437808380128,-1397.6322451782225
620.0,1122.7129159378997,-1835.6468355381066,-685.0684654454251,-948.405800983429,-1509.9615911254882,-1385.6207377090454
630.0,1123.4701687399759,-1843.4209328538354,-669.905796221742,-954.8662320785522,-1520.1151138153077,-1373.550236114502
640.0,1124.1793147628969,-1851.116809910039,-654.7146863804237,-961.2861255264282,-1530.204101928711,-1361.4214217300414
650.0,1124.8404664990167,-1858.7343653933654,-639.4958614752353,-967.6653271598816,-1540.2283155822754,-1349.2349771270751
660.0,1125.4537400194295,-1866.2735054444593,-624.2500452483748,-974.0036872749329,-1550.187521987915,-1336.9915859451294
670.0,1126.0192549155583,-1873.7341436274924,-608.9779595502825,-980.3010606384278,-1560.0814954223633,-1324.6919327926635
680.0,1126.5371342254073,-1881.1162008556266,-593.6803241898053,-986.5573064537049,-1569.9100171966552,-1312.3367030715942
690.0,1127.0075044153923,-1888.4196053561818,-578.3578568695107,-992.7722883605957,-1579.672875640869,-1299.926582901001
700.0,1127.4304953180501,-1895.6442926224104,-563.0112730240563,-998.9458744087219,-1589.369866104126,-1287.4622589416504
710.0,1127.80624006687,-1902.7902053383507,-547.6412857648261,-1005.0779370498657,-1599.000790878296,-1274.9444183044434
720.0,1128.13487502312,-1909.8572933182643,-532.2486057582223,-1011.1683531074524,-1608.5654591674804,-1262.3737484054566
730.0,1128.4165397795725,-1916.8455134880578,-516.8339411153961,-1017.2170037727356,-1618.0636871185302,-1249.750936859131
740.0,1128.6513770498532,-1923.7548297652195,-501.3979972928215,-1023.2237745628357,-1627.4952977142334,-1237.0766713256835
750.0,1128.8395326310201,-1930.5852130448575,-485.9414770148053,-1029.188555316925,-1636.8601207733154,-1224.351639427185
760.0,1128.9811553815982,-1937.3366411314935,-470.46508015999626,-1035.1112401695252,-1646.1579929351806,-1211.576528617859
770.0,1129.0763970970254,-1944.0090986342973,-454.9695036688477,-1040.9917275161743,-1655.3887575531005,-1198.7520260391236
780.0,1129.1254125204837,-1950.602576950556,-439.45544146178975,-1046.8299199981689,-1664.5522647247315,-1185.8788184432983
790.0,1129.1283592512136,-1957.1170741776004,-423.9235843419477,-1052.6257244758606,-1673.6483712158204,-1172.9575920562745
800.0,1129.0853976958188,-1963.5525950365736,-408.3746199146018,-1058.3790519943236,-1682.6769404144286,-1159.989032470703
810.0,1128.9966910079922,-1969.909150811187,-392.8092325063144,-1064.0898177642823,-1691.6378422851562,-1146.9738245391845
820.0,1128.8624050523792,-1976.1867592918825,-377.2281030656196,-1069.757941131592,-1700.5309533538818,-1133.9126522598267
830.0,1128.6827083258997,-1982.3854446852288,-361.6319090870563,-1075.3833455429078,-1709.3561566314697,-1120.8061986618043
840.0,1128.457771887638,-1988.5052375316905,-346.0213245562025,-1080.965958518982,-1718.1133415374757,-1107.6551457138062
850.0,1128.187769354368,-1994.5461746650922,-330.3970198600384,-1086.505711616516,-1726.8024039154052,-1094.4601742324828
860.0,1127.8728768159388,-2000.5082991225838,-314.75966168959053,-1092.0025404052735,-1735.423245956421,-1081.2219637451171
870.0,1127.5132727467562,-2006.3916600596,-299.10991299791027,-1097.456384437561,-1743.975776107788,-1067.9411924057006
880.0,1127.109137990531,-2012.196312680755,-283.4484329223132,-1102.867187198639,-1752.459909057617,-1054.6185369033813
890.0,1126.6606557208763,-2017.9223181920784,-267.7758767187711,-1108.2348960914612,-1760.8755657043457,-1041.2546723785401
900.0,1126.1680113176076,-2023.5697436596813,-252.0928956884643,-1113.5594623832703,-1769.2226730194093,-1027.8502722854614
910.0,1125.6313923797309,-2029.1386619990064,-236.4001371171847,-1118.8408411865234,-1777.5011640777589,-1014.4060083389282
920.0,1125.0509886235009,-2034.629151854617,-220.69824423116935,-1124.0789914131165,-1785.710977935791,-1000.922550415039
930.0,1124.4269918630637,-2040.041297554979,-204.9878561060693,-1129.273875743866,-1793.8520596313476,-987.4005664520264
940.0,1123.759595924465,-2045.3751889894334,-189.2696076368913,-1134.4254605827332,-1801.9243600616455,-973.840722366333
950.0,1123.0489965970066,-2050.630921563062,-173.54412948680016,-1139.5337160263061,-1809.9278359527589,-960.2436819839478
960.0,1122.2953916093545,-2055.8085961085303,-157.81204798690126,-1144.5986158180237,-1817.8624498291015,-946.610106918335
970.0,1121.4989805403056,-2060.908318815422,-142.0739851562814,-1149.6201373252868,-1825.7281699066161,-932.9406565475464
980.0,1120.6599647412531,-2065.930201106309,-126.33055861824273,-1154.5982614822387,-1833.5249700012207,-919.2359878845215
990.0,1119.7785473845865,-2070.8743596230283,-110.58238152134652,-1159.5329727554322,-1841.2528295898437,-905.4967555160522
1000.0,1118.8549332800833,-2075.740916085659,-94.83006255810498,-1164.4242591094971,-1848.9117335968017,-891.7236115341186
1010.0,1117.8893289195717,-2080.5299972516023,-79.07420587093254,-1169.2721119613648,-1856.5016724395753,-877.9172054519653
1020.0,1116.881942386131,-2085.241734812238,-63.31541105725453,-1174.0765261383056,-1864.0226419067383,-864.0781841583251
1030.0,1115.83298328954,-2089.8762653237154,-47.55427307469677,-1178.8374998512268,-1871.4746431121825,-850.2071917953491
1040.0,1114.7426627395032,-2094.4337301103965,-31.791382264561484,-1183.555034626007,-1878.8576824188233,-836.3048697509765
1050.0,1113.611193275024,-2098.914275192323,-16.027324269727572,-1188.2291352844238,-1886.1717713775636,-822.3718565444947
1060.0,1112.4387888443594,-2103.3180512167937,-0.2626800248589134,-1192.8598098983764,-1893.4169266815186,-808.4087877960205
1070.0,1111.2256647072652,-2107.6452133585058,15.501974272431806,-1197.4470697441102,-1900.593170059204,-794.4162961502075
1080.0,1109.9720374341616,-2111.895921240029,31.266067212444497,-1201.9909292564391,-1907.7005282440186,-780.3950112075805
1090.0,1108.6781248062384,-2116.0703388491083,47.029032174182824,-1206.4914059906007,-1914.7390328674317,-766.3455594787598
1100.0,1107.3441458177444,-2120.1686344835935,62.79030736817431,-1210.9485205879212,-1921.7087204437255,-752.2685643310547
1110.0,1105.9703205762069,-2124.1909806194512,78.54933584629266,-1215.3622967147828,-1928.609632232666,-738.1646459197998
1120.0,1104.5568703263136,-2128.1375538934867,94.30556554801308,-1219.7327610321045,-1935.4418142700194,-724.0344211502075
1130.0,1103.1040172938258,-2132.008534956965,110.05844928736764,-1224.0599431533813,-1942.2053171691894,-709.8785036087036
1140.0,1101.611984748904,-2135.804108453445,125.80744481756025,-1228.3438755989075,-1948.900196182251,-695.6975035171508
1150.0,1100.080996899138,-2139.524462903759,141.55201478585764,-1232.5845937461852,-1955.5265110473633,-681.4920277175903
1160.0,1098.5112788579083,-2143.169790639813,157.29162681298004,-1236.782135799408,-1962.084325958252,-667.2626795730591
1170.0,1096.9030565702203,-2146.7402877034037,173.0257534454416,-1240.9365427360535,-1968.5737094421386,-653.0100589675903
1180.0,1095.2565568322348,-2150.2361538071646,188.75387224387342,-1245.0478582649232,-1974.9947343902588,-638.73476222229
1190.0,1093.5720071994278,-2153.657592232118,204.47546571001982,-1249.1161287918092,-1981.3474779052735,-624.4373821105956
1200.0,1091.8496359419225,-2157.0048097443296,220.1900213527888,-1253.141403366089,-1987.632021255493,-610.1185077667236
1210.0,1090.0896720188837,-2160.278016520927,235.89703168525116,-1257.1237336387635,-1993.8484498138428,-595.7787246627807
1220.0,1088.2923450191488,-2163.4774260863846,251.59599421606947,-1261.0631738319396,-1999.9968529815674,-581.4186145858764
1230.0,1086.4578851554186,-2166.603255228099,267.2864114589712,-1264.9597806777954,-2006.077324142456,-567.038755607605
1240.0,1084.5865231689206,-2169.6557239095296,282.96779094779737,-1268.8136133880614,-2012.0899605560303,-552.6397220230102
1250.0,1082.6784903203215,-2172.6350552020394,298.63964523218885,-1272.6247336082458,-2018.0348633117676,-538.2220843353272
1260.0,1080.7340183668693,-2175.5414752236547,314.3014918732826,-1276.3932053718568,-2023.9121372833251,-523.7864092407226
1270.0,1078.7533394653085,-2178.3752130425014,329.95285344588825,-1280.1190950698854,-2029.7218910064698,-509.3332595748901
1280.0,1076.7366862194563,-2181.1365006279116,345.5932575500738,-1283.8024713897705,-2035.464236694336,-494.86319430541994
1290.0,1074.684291543954,-2183.825572738975,361.22223678179637,-1287.4434052848817,-2041.13929006958,-480.3767684936523
1300.0,1072.596388685275,-2186.4426668882284,376.8393287462802,-1291.0419699401855,-2046.7471703643798,-465.8745332794189
1310.0,1070.4732111882008,-2188.9880232576847,392.4440760616729,-1294.5982407112122,-2052.2880002593993,-451.3570358505249
1320.0,1068.3149928338244,-2191.4618846255426,408.03602631079167,-1298.1122951011657,-2057.7619057769775,-436.8248194503784
1330.0,1066.1219676092794,-2193.8644962939907,423.6147321060148,-1301.5842127113342,-2063.16901625061,-422.2784232940674
1340.0,1063.8943696807064,-2196.1961060162557,439.17975099692296,-1305.0140751914978,-2068.5094642333984,-407.7183826293945
1350.0,1061.6324333679427,-2198.4569639461915,454.7306455145968,-1308.401966217041,-2073.783385467529,-393.1452286758423
1360.0,1059.3363930644632,-2200.647322543337,470.26698316519196,-1311.7479714431763,-2078.9909187774656,-378.5594885864258
1370.0,1057.006483278121,-2202.767436528121,485.7883363736375,-1315.052178451538,-2084.1322060546877,-363.96168550109866
1380.0,1054.64293851535,-2204.8175627954415,501.294282500165,-1318.3146767311096,-2089.20739213562,-349.35233847808837
1390.0,1052.2459933216635,-2206.7979603640183,516.7844038320497,-1321.5355576210022,-2094.2166248016356,-334.73196250152586
1400.0,1049.815882192684,-2208.70889028775,532.2582875504594,-1324.714914276123,-2099.1600546569825,-320.1010684661865
1410.0,1047.3528395876922,-2210.550615628178,547.715525736861,-1327.8528416366578,-2104.037835128784,-305.46016316986083
1420.0,1044.857099877964,-2212.323401362791,563.1557153242896,-1330.9494363822937,-2108.8501223602293,-290.8097493209839
1430.0,1042.3288972963633,-2214.027514316935,578.5784581155857,-1334.0047968940735,-2113.597075149536,-276.1503254928589
1440.0,1039.7684659717474,-2215.6632231238477,593.9833607343065,-1337.0190232086181,-2118.2788549346924,-261.4823861694336
1450.0,1037.1760398203764,-2217.2307981431454,609.3700346200994,-1339.9922169990539,-2122.895625671387,-246.80642169952392
1460.0,1034.5518525724674,-2218.7305114060537,624.7380960147075,-1342.9244815216064,-2127.447553817749,-232.12291830444335
1470.0,1031.8961377224293,-2220.162636560315,640.0871659252745,-1345.8159215888977,-2131.934808258057,-217.43235808563233
1480.0,1029.209128526545,-2221.5274488149366,655.4168701187989,-1348.66664352417,-2136.3575602722167,-202.7352190170288
1490.0,1026.4910579197308,-2222.825224848272,670.7268390961094,-1351.4767551307677,-2140.7159834136964,-188.03197492218018
1500.0,1023.7421585759845,-2224.0562427995756,686.0167080603866,-1354.2463656539917,-2145.0102535400392,-173.32309552001954
1510.0,1020.9626628089992,-2225.2207821845645,701.2861168911458,-1356.9755857505797,-2149.240548690796,-158.60904640197754
1520.0,1018.1528025572687,-2226.319123809949,716.5347101409935,-1359.6645274353027,-2153.4070490264894,-143.89028900909423
1530.0,1015.3128094226283,-2227.351549800826,731.7621369979041,-1362.3133040809632,-2157.509936859131,-129.1672806854248
1540.0,1012.4429145488097,-2228.318343446615,746.9680512420989,-1364.9220303459167,-2161.5493964691163,-114.44047464752197
1550.0,1009.5433486762795,-2229.2197892131408,762.1521112491492,-1367.490822162628,-2165.525614151001,-99.71031999969482
1560.0,1006.6143421202364,-2230.056172690867,777.3139799717286,-1370.019796699524,-2169.4387781677246,-84.97726173400879
1570.0,1003.6561246589448,-2230.8277804860863,792.4533248678496,-1372.50907232666,-2173.2890785827635,-70.24174073791504
1580.0,1000.6689256271804,-2231.5349002277926,807.5698179079915,-1374.9587685775757,-2177.076707336426,-55.50419381713867
1590.0,997.6529738240368,-2232.1778204927436,822.6631355280856,-1377.3690061264037,-2180.8018581237793,-40.76505369567871
1600.0,994.6084975124036,-2232.7568307513,837.7329586311786,-1379.7399067497254,-2184.464726364136,-26.024749000549317
1610.0,991.5357244192609,-2233.2722213395023,852.7789725328519,-1382.071593296051,-2188.065509170532,-11.283704307556153
