sat1Name,LLO-6-3
sat1Smaj,3416.853
sat1Ecc,0.359146
sat1Inc,90.188
sat1RAAN,239.221
sat1ArgPer,292.93
sat1TrAnom,0
Time[EpSec],xF[km],yF[km],zF[km],xI[km],yI[km],zI[km]
0.0,986.1709897113309,-1159.503572133292,-1574.1097387145796,-430.8810234336853,-736.343971786499,-2016.6661407165527
10.0,990.5217919724433,-1171.6570261955962,-1562.3604034341927,-439.1115887641907,-750.1185030059814,-2009.8225995559692
20.0,994.8256964972363,-1183.756000233559,-1550.538112850133,-447.32164963150024,-763.8580071716309,-2002.8852090301514
30.0,999.0825087680817,-1195.7999309768127,-1538.6434244585469,-455.5108242416382,-777.5618454437256,-1995.854300140381
40.0,1003.2920388193086,-1207.7882605807117,-1526.6769026882398,-463.67873290634157,-791.2293825073242,-1988.730212890625
50.0,1007.454101359288,-1219.7204367804677,-1514.6391187485121,-471.8249981117249,-804.8599868011474,-1981.513296218872
60.0,1011.5685157510585,-1231.5959129641549,-1502.5306505196718,-479.949244594574,-818.4530305786133,-1974.2039079055787
70.0,1015.6351060953751,-1243.4141483113153,-1490.3520824592379,-488.05109941864015,-832.0078900756836,-1966.8024145431518
80.0,1019.653701185287,-1255.1746078456347,-1478.1040054633309,-496.13019203567507,-845.5239455566406,-1959.30919140625
90.0,1023.6241346269331,-1266.876762579732,-1465.7870167272163,-504.18615436172485,-859.00058152771,-1951.724622390747
100.0,1027.5462447837579,-1278.5200895871517,-1453.4017196545044,-512.2186208534241,-872.4371867675782,-1944.0490999298095
110.0,1031.419874882027,-1290.1040721304523,-1440.948723709649,-520.2272285728454,-885.8331545257569,-1936.2830249176025
120.0,1035.244872950463,-1301.628199695314,-1428.428644298026,-528.2116172485352,-899.1878825378418,-1928.4268065872193
130.0,1039.0210919138135,-1313.091968135136,-1415.842102625323,-536.171429347992,-912.500773223877,-1920.4808624420166
140.0,1042.7483895944442,-1324.4948797508018,-1403.189725562474,-544.1063101463318,-925.7712337799072,-1912.4456181488038
150.0,1046.4266286802324,-1335.836443331801,-1390.4721455482068,-552.0159077835083,-938.9986762084961,-1904.3215074462892
160.0,1050.0556768394147,-1347.116174311588,-1377.6900003887529,-559.8998733329773,-952.1825175628662,-1896.1089720306397
170.0,1053.6354066398922,-1358.333594786497,-1364.8439331905552,-567.7578608665466,-965.3221799163819,-1887.8084614715576
180.0,1057.1656956090537,-1369.4882336148737,-1351.9345921753602,-575.5895275039672,-978.4170905303955,-1879.4204330825805
190.0,1060.6464262819425,-1380.579626528178,-1338.962630555751,-583.3945334892273,-991.4666819915772,-1870.9453518447876
200.0,1064.0774861098155,-1391.607316126203,-1325.9287063849458,-591.1725422325135,-1004.4703921966553,-1862.3836902389526
210.0,1067.458767579882,-1402.5708520355108,-1312.833482445633,-598.9232203826904,-1017.42766456604,-1853.735928215027
220.0,1070.7901681606506,-1413.469790908765,-1299.6776260542767,-606.6462378616333,-1030.3379480743408,-1845.0025529937743
230.0,1074.071590287022,-1424.3036965117274,-1286.4618089796757,-614.3412679481506,-1043.2006973114014,-1836.1840590057373
240.0,1077.3029414376194,-1435.0721398116855,-1273.1867072456655,-622.0079873046875,-1056.0153726654053,-1827.2809477539063
250.0,1080.4841340711152,-1445.7746989973834,-1259.8530010098104,-629.64607604599,-1068.781440322876,-1818.293727684021
260.0,1083.6150856729614,-1456.410959569714,-1246.4613743915968,-637.2552177772521,-1081.4983724212645,-1809.2229140625
270.0,1086.6957186885036,-1466.9805143632652,-1233.012515392279,-644.8350996589661,-1094.1656470336914,-1800.0690288848878
280.0,1089.7259605917095,-1477.4829636221407,-1219.507115655195,-652.385412437439,-1106.7827483520507,-1790.832600692749
290.0,1092.7057438434358,-1487.9179150354062,-1205.9458703883938,-659.9058504943848,-1119.3491667022704,-1781.5141644973755
300.0,1095.6350058942014,-1498.2849838028587,-1192.3294781746297,-667.3961119041443,-1131.864398651123,-1772.114261619568
310.0,1098.5136891710004,-1508.5837926508032,-1178.6586408405333,-674.8558984603882,-1144.327947052002,-1762.633439567566
320.0,1101.34174106457,-1518.813971892165,-1164.934063313575,-682.2849157295227,-1156.7393211212159,-1753.072251914978
330.0,1104.1191139132654,-1528.975159441861,-1151.156453443028,-689.6828730812073,-1169.0980364990235,-1743.4312581329345
340.0,1106.845765012416,-1539.0670008810978,-1137.326521906456,-697.0494837341308,-1181.4036153259278,-1733.7110235214234
350.0,1109.521656583561,-1549.089149474026,-1123.4449819683623,-704.3844647903443,-1193.6555863189697,-1723.9121189804077
360.0,1112.146755743726,-1559.04126618553,-1109.5125494371619,-711.6875372695923,-1205.8534847717285,-1714.0351209640503
370.0,1114.7210345187816,-1568.9230197347129,-1095.5299424414775,-718.9584261512756,-1217.9968526763917,-1704.080611289978
380.0,1117.2444698045515,-1578.7340865814417,-1081.4978812972358,-726.1968603820801,-1230.0852387390137,-1694.049177001953
390.0,1119.7170433561462,-1588.4741509987477,-1067.4170883784159,-733.4025729446411,-1242.1181984558104,-1683.9414102630615
400.0,1122.1387417334859,-1598.1429050255772,-1053.2882879408505,-740.5753008537292,-1254.095294113159,-1673.757908164978
410.0,1124.5095563197015,-1607.7400485319058,-1039.112206008868,-747.7147851982116,-1266.0160948791504,-1663.499272644043
420.0,1126.829483294305,-1617.2652892298702,-1024.889570175184,-754.8207711677551,-1277.880176864624,-1653.1661102905273
430.0,1129.0985235429905,-1626.7183426309023,-1010.6211095180753,-761.8930080680847,-1289.6871230621339,-1642.7590322341919
440.0,1131.3166827334544,-1636.0989321386155,-996.3075543967142,-768.9312493629456,-1301.4365235290527,-1632.2786539993285
450.0,1133.4839711913744,-1645.4067889740438,-981.9496363450463,-775.9352526741028,-1313.1279752960204,-1621.7255953521728
460.0,1135.6004039163997,-1654.6416522098802,-967.5480879094761,-782.9047798042297,-1324.761082458496,-1611.1004801635743
470.0,1137.6660005364586,-1663.8032687745172,-953.1036425154092,-789.8395967712403,-1336.3354561920166,-1600.4039362716676
480.0,1139.680785281336,-1672.8913934427733,-938.6170342875325,-796.7394738121033,-1347.8507147979735,-1589.6365953063964
490.0,1141.6447869636668,-1681.9057888369352,-924.088997973246,-803.6041853942871,-1359.306483718872,-1578.7990926132202
500.0,1143.5580388874678,-1690.8462253890666,-909.5202687435054,-810.4335102386475,-1370.7023955230713,-1567.8920670318603
510.0,1145.4205788846064,-1699.7124813754772,-894.9115820730658,-817.2272313308716,-1382.038089996338,-1556.9161608047486
520.0,1147.232449212733,-1708.504342859903,-880.2636736226368,-823.985135925293,-1393.3132140808104,-1545.8720194244386
530.0,1148.993696541684,-1717.2216036998486,-865.5772790601638,-830.7070155601501,-1404.5274219360351,-1534.7602914657593
540.0,1150.7043719521266,-1725.864065533882,-850.8531339576083,-837.392666053772,-1415.6803749694825,-1523.5816284866332
550.0,1152.3645308210762,-1734.431537751896,-836.0919736455704,-844.0418875350953,-1426.7717417907716,-1512.3366848526
560.0,1153.9742328299299,-1742.9238374625234,-821.2945330623472,-850.6544844207764,-1437.8011982574462,-1501.0261175918579
570.0,1155.5335418814725,-1751.3407894692878,-806.4615466793107,-857.2302654342651,-1448.7684274291992,-1489.6505862960817
580.0,1157.042526122557,-1759.6822262712715,-791.5937482699599,-863.769043598175,-1459.6731196746825,-1478.2107529144287
590.0,1158.5012578204135,-1767.947988000622,-776.6918708926773,-870.2706362495422,-1470.5149725494384,-1466.7072816848754
600.0,1159.9098133745736,-1776.1379224037619,-761.7566466928093,-876.734865020752,-1481.2936908721924,-1455.140838951111
610.0,1161.2682732395094,-1784.2518848090322,-746.7888067871327,-883.1615558509827,-1492.008986694336,-1443.5120930252076
620.0,1162.5767218910382,-1792.289738085985,-731.7890811443015,-889.5505389709473,-1502.6605792999267,-1431.8217140579225
630.0,1163.835247746595,-1800.2513525932002,-716.7581985093194,-895.9016489067078,-1513.2481951446532,-1420.0703739318847
640.0,1165.0439431855043,-1808.136606183745,-701.6968861796379,-902.2147244720459,-1523.7715679626465,-1408.2587460632324
650.0,1166.2029044094206,-1815.9453841007896,-686.605869986085,-908.4896087532044,-1534.2304386138917,-1396.387505317688
660.0,1167.3122314738055,-1823.6775789902001,-671.4858741310383,-914.7261491088867,-1544.6245551757813,-1384.45732787323
670.0,1168.3720281940114,-1831.3330908241594,-656.337621056803,-920.9241971588135,-1554.9536728820801,-1372.4688910522461
680.0,1169.3824020707411,-1838.9118268468037,-641.1618313987616,-927.0836087646485,-1565.2175540618896,-1360.4228732452393
690.0,1170.343464297427,-1846.4137015426982,-625.959223778938,-933.2042440223694,-1575.4159682006837,-1348.3199537124633
700.0,1171.2553296684105,-1853.83863659188,-610.7305147859549,-939.285967250824,-1585.5486918640136,-1336.1608125305177
710.0,1172.118116524779,-1861.1865607899088,-595.4764188177629,-945.328646976471,-1595.6155086669921,-1323.9461304092408
720.0,1172.9319467276425,-1868.4574100214356,-580.1976479776565,-951.3321559066773,-1605.6162092895509,-1311.6765885849
730.0,1173.6969455581884,-1875.651127177454,-564.8949119893894,-957.2963709259034,-1615.5505913848876,-1299.3528686904908
740.0,1174.4132417199178,-1882.7676621326352,-549.5689180942709,-963.2211730766296,-1625.4184596099853,-1286.9756526565552
750.0,1175.0809672259898,-1889.8069716433788,-534.2203709458392,-969.1064475212097,-1635.2196255340575,-1274.5456225585938
760.0,1175.700257399578,-1896.7690193337748,-518.8499724923001,-974.9520835494995,-1644.9539076690673,-1262.0634605026246
770.0,1176.2712507679612,-1903.653775594689,-503.45842192645824,-980.7579745368957,-1654.621131362915,-1249.529848526001
780.0,1176.7940890441605,-1910.4612175432485,-488.0464155533749,-986.5240179252625,-1664.2211288146973,-1236.945468460083
790.0,1177.2689170223562,-1917.1913289454142,-472.61464671973863,-992.2501152114868,-1673.7537389831543,-1224.3110018157959
800.0,1177.6958826165458,-1923.8441001759716,-457.1638057198946,-997.9361718978881,-1683.2188076324462,-1211.627129699707
810.0,1178.0751366711618,-1930.4195281125749,-441.69457971151036,-1003.5820975036621,-1692.6161871643067,-1198.8945326538085
820.0,1178.406833041727,-1936.9176161125047,-426.20765261857326,-1009.1878055000305,-1701.9457367095947,-1186.1138905868531
830.0,1178.6911284206808,-1943.3383738987593,-410.7037050685324,-1014.753213306427,-1711.2073219604492,-1173.2858826370239
840.0,1178.9281823493436,-1949.6818175325407,-395.1834142965319,-1020.2782422676087,-1720.4008152008057,-1160.4111870803833
850.0,1179.118157133063,-1955.9479693099763,-379.64745408968395,-1025.762817604065,-1729.5260952148437,-1147.4904812316895
860.0,1179.2612178289987,-1962.136857721053,-364.09649466177973,-1031.2068683929444,-1738.583047302246,-1134.5244413146972
870.0,1179.3575321219957,-1968.2485173475402,-348.53120263569207,-1036.6103275413514,-1747.571563140869,-1121.5137423858644
880.0,1179.4072702872033,-1974.2829888027188,-332.9522409710307,-1041.973131755829,-1756.4915407562255,-1108.459058242798
890.0,1179.410605177317,-1980.2403186712554,-317.3602688181017,-1047.2952215042114,-1765.3428845367432,-1095.3610612716675
900.0,1179.3677121249689,-1986.1205594139851,-301.75594155679994,-1052.5765409851074,-1774.1255050964355,-1082.2204224319457
910.0,1179.2787688835117,-1991.9237693052587,-286.13991064072223,-1057.817038105011,-1782.8393192596436,-1069.0378110809327
920.0,1179.1439556010766,-1997.6500123524133,-270.5128236004069,-1063.0166644248961,-1791.48425,-1055.8138949508666
930.0,1178.9634547046917,-2003.299358212613,-254.87532394449633,-1068.1753751487731,-1800.060226348877,-1042.5493400039672
940.0,1178.7374509362505,-2008.8718821409682,-239.2280511126602,-1073.2931290740967,-1808.5671834106445,-1029.2448103866577
950.0,1178.4661312149651,-2014.3676648851135,-223.57164040297118,-1078.369888557434,-1817.0050622406006,-1015.9009682998657
960.0,1178.1496845932922,-2019.7867926090762,-207.90672296630322,-1083.4056194877624,-1825.3738097686767,-1002.5184739608765
970.0,1177.7883022627736,-2025.1293568603485,-192.23392566980107,-1088.4002912483215,-1833.6733788452148,-989.0979854736328
980.0,1177.3821774192247,-2030.395454422368,-176.5538711453434,-1093.3538766670226,-1841.9037280426026,-975.6401587982177
990.0,1176.9315052598618,-2035.585187285615,-160.8671776654881,-1098.2663519973755,-1850.064821685791,-962.1456476287842
1000.0,1176.436482901783,-2040.698662551322,-145.17445910889631,-1103.1376968688965,-1858.1566297607421,-948.6151033172607
1010.0,1175.897309334458,-2045.7359923574547,-129.47632495472917,-1107.9678942604064,-1866.1791278381347,-935.0491748352051
1020.0,1175.3141853643856,-2050.697293786803,-113.77338021528779,-1112.7569304504395,-1874.132297012329,-921.4485086746216
1030.0,1174.6873136046813,-2055.5826888186766,-98.06622535924824,-1117.5047949790955,-1882.016123901367,-907.8137487640381
1040.0,1174.0168983018564,-2060.392304199688,-82.35545635119442,-1122.2114806289674,-1889.8306004333497,-894.1455364227295
1050.0,1173.3031454520499,-2065.1262714244017,-66.64166454314231,-1126.8769833526612,-1897.5757239685058,-880.4445102920532
1060.0,1172.546262597341,-2069.784726597351,-50.925436677340535,-1131.5013022651672,-1905.2514970703126,-866.7113062438965
1070.0,1171.7464588503778,-2074.367810405088,-35.20735484041809,-1136.0844395942688,-1912.8579275360107,-852.9465573425293
1080.0,1170.9039448387932,-2078.875667984604,-19.48799643487786,-1140.6264006195067,-1920.395028289795,-839.1508937683105
1090.0,1170.0189326194525,-2083.308448898958,-3.76793415997189,-1145.127193675995,-1927.8628173217774,-825.3249427719117
1100.0,1169.0916356656212,-2087.6663070094437,11.952264033699757,-1149.586830066681,-1935.261317626953,-811.4693285980225
1110.0,1168.1222687897307,-2091.9494004250373,27.672034964377993,-1154.0053240585328,-1942.5905571289063,-797.5846724319458
1120.0,1167.1110481310002,-2096.1578914314364,43.39082024862338,-1158.3826928253175,-1949.850568649292,-783.6715923538208
1130.0,1166.0581910357732,-2100.2919463717567,59.10806629875058,-1162.7189564094544,-1957.041389755249,-769.7307032775878
1140.0,1164.9639160850504,-2104.351735606978,74.82322436302086,-1167.0141376800536,-1964.163062774658,-755.7626169128418
1150.0,1163.8284429917308,-2108.337433419566,90.53575056881924,-1171.268262298584,-1971.215634689331,-741.7679416732788
1160.0,1162.6519926051433,-2112.249217950231,106.24510588300473,-1175.481358669281,-1978.1991570892335,-727.747282699585
1170.0,1161.434786774966,-2116.087271087148,121.95075616476662,-1179.653457912445,-1985.1136860351562,-713.7012417449952
1180.0,1160.177048428421,-2119.85177843733,137.65217220163638,-1183.784593799591,-1991.959282119751,-699.6304171600342
1190.0,1158.8790014017682,-2123.5429292071085,153.34882965608674,-1187.8748027458191,-1998.7360102539062,-685.5354038619995
1200.0,1157.5408704731315,-2127.160916144806,169.040209139111,-1191.924123737335,-2005.4439396972657,-671.4167932662964
1210.0,1156.1628812885695,-2130.705935463792,184.7257961902537,-1195.9325983123779,-2012.083143951416,-657.2751732635498
1220.0,1154.7452603338536,-2134.17818676616,200.40508130126597,-1199.9002705039977,-2018.6537007141114,-643.1111281738281
1230.0,1153.2882348529804,-2137.5778729568387,216.07755988319067,-1203.8271868171691,-2025.1556917572022,-628.9252387313843
1240.0,1151.792032868849,-2140.9052002056137,231.74273234041803,-1207.7133961791992,-2031.5892029571532,-614.7180820159912
1250.0,1150.2568830558828,-2144.160377801685,247.40010400811897,-1211.5589498901368,-2037.9543240966798,-600.4902314376831
1260.0,1148.683014758401,-2147.3436181488355,263.04918519169047,-1215.3639016036987,-2044.2511488952637,-586.2422567062378
1270.0,1147.0706579649602,-2150.455136677578,278.6894911704076,-1219.1283072662354,-2050.47977494812,-571.9747238006591
1280.0,1145.4200431958616,-2153.4951517372933,294.32054217394466,-1222.8522250900269,-2056.6403035736084,-557.6881949310302
1290.0,1143.7314015288775,-2156.4638845674044,309.94186339428785,-1226.5357155075073,-2062.7328398284913,-543.3832285308838
1300.0,1142.0049645068393,-2159.3615591861444,325.5529849678316,-1230.1788411331177,-2068.7574923706056,-529.0603792190552
1310.0,1140.2409641433312,-2162.188402366295,341.1534420228647,-1233.7816667327882,-2074.714373474121,-514.7201977539063
1320.0,1138.4396328756127,-2164.944643522073,356.74277461051605,-1237.344259159088,-2080.6035989074708,-500.36323105621335
1330.0,1136.6012034780265,-2167.6305146482705,372.32052771192025,-1240.8666873397826,-2086.425287841797,-485.99002216339113
1340.0,1134.7259090976854,-2170.246250283029,387.88625129111756,-1244.349022228241,-2092.17956288147,-471.60111018371583
1350.0,1132.8139831737294,-2172.7920873988264,403.4395002077147,-1247.79133675766,-2097.866549911499,-457.1970303268433
1360.0,1130.8656593932717,-2175.268265356743,418.9798342342114,-1251.1937058181763,-2103.486378051758,-442.77831386566163
1370.0,1128.8811716978207,-2177.675025829209,434.50681807128495,-1254.5562061958312,-2109.039179626465,-428.34548810577394
1380.0,1126.860754192597,-2180.012612744306,450.02002131396665,-1257.8789165649414,-2114.525090057373,-413.89907637786865
1390.0,1124.804641164564,-2182.2812722119697,465.51901843863965,-1261.1619174232483,-2119.944247833252,-399.43959803771975
1400.0,1122.713067013858,-2184.481252461711,481.0033887747111,-1264.4052910690307,-2125.296794418335,-384.96756845855714
1410.0,1120.586266234693,-2186.6128037756944,496.47271654842353,-1267.6091215553283,-2130.582874221802,-370.48349897003175
1420.0,1118.424473396258,-2188.6761784362666,511.9265907967193,-1270.773494659424,-2135.8026345214844,-355.9878969192505
1430.0,1116.2279230615557,-2190.6716306432627,527.3646053880262,-1273.8984978485107,-2140.9562253723143,-341.48126560974123
1440.0,1113.996849814194,-2192.5994164638773,542.7863590012939,-1276.9842202301024,-2146.0437995910643,-326.9641043167114
1450.0,1111.7314881814211,-2194.45979377613,558.191455104877,-1280.0307525367737,-2151.065512664795,-312.43690827178955
1460.0,1109.4320726698568,-2196.253022214661,573.5795019623803,-1283.0381870689391,-2156.0215227508543,-297.90016865539553
1470.0,1107.0988376296425,-2197.9793630673694,588.9501125553227,-1286.0066176719665,-2160.9119904937743,-283.3543726043701
1480.0,1104.7320173181301,-2199.6390792741995,604.3029046127359,-1288.9361397018433,-2165.7370790863038,-268.8000032043457
1490.0,1102.3318458534968,-2201.232435340315,619.6375005823508,-1291.8268499794005,-2170.4969541778564,-254.2375394821167
1500.0,1099.898557156622,-2202.7596972713686,634.9535275952098,-1294.6788467674255,-2175.191783782959,-239.66745640563965
1510.0,1097.4323849230977,-2204.2211325249937,650.2506174474217,-1297.4922297325134,-2179.8217382354737,-225.0902248840332
1520.0,1094.9335626412717,-2205.61700996829,665.528406593617,-1300.267099910736,-2184.3869901733397,-210.50631176757813
1530.0,1092.4023235362215,-2206.947599805386,680.7865361113234,-1303.0035596733094,-2188.8877144470216,-195.91617984771727
1540.0,1089.8389005248387,-2208.2131735258167,696.024651650169,-1305.70171269989,-2193.3240880432127,-181.32028787994383
1550.0,1087.2435262284769,-2209.4140038444316,711.2424034532235,-1308.3616639289855,-2197.6962900695803,-166.71909055328368
1560.0,1084.6164329399116,-2210.550364683949,726.4394463183165,-1310.9835195541382,-2202.004501708984,-152.1130385131836
1570.0,1081.9578525731881,-2211.622531063314,741.615439562926,-1313.5673869552613,-2206.2489061126707,-137.50257835388183
1580.0,1079.2680166697817,-2212.6307791005647,756.770046976128,-1316.1133747024537,-2210.4296883850097,-122.88815266418457
1590.0,1076.547156361637,-2213.575385939174,771.9029368565208,-1318.6215925064087,-2214.5470355377197,-108.27019996643067
1600.0,1073.7955023631519,-2214.4566296914995,787.0137819118179,-1321.0921511802674,-2218.6011364135743,-93.64915479278565
1610.0,1071.0132849211,-2215.274789404679,802.1022592764972,-1323.5251626319885,-2222.592181640625,-79.02544764709472
