sat1Name,LLO-5-3
sat1Smaj,3416.853
sat1Ecc,0.359146
sat1Inc,90.188
sat1RAAN,238.721
sat1ArgPer,292.93
sat1TrAnom,0
Time[EpSec],xF[km],yF[km],zF[km],xI[km],yI[km],zI[km]
0.0,979.7977254320402,-1163.1224264379332,-1575.4192656564237,-437.2903494224548,-732.5558317108155,-2016.666141921997
10.0,984.0280381332075,-1175.3426839201659,-1563.6949936412973,-445.64080529022215,-746.2580141296387,-2009.8226007843018
20.0,988.2117527714781,-1187.5082828704108,-1551.8977040026814,-453.97045180892945,-759.9253497619629,-2002.885210281372
30.0,992.3486804249924,-1199.6186569425056,-1540.027953073625,-462.2789016304016,-773.557203125,-1995.8543014144898
40.0,996.4386367020604,-1211.6732452254473,-1528.0863041252535,-470.56576953125,-787.1529422454834,-1988.730214187622
50.0,1000.481441826696,-1223.6714923973655,-1516.0733272187867,-478.8306725006104,-800.7119388580322,-1981.5132975311278
60.0,1004.476920703468,-1235.612848850918,-1503.9895990964035,-487.07322981643676,-814.2335685577392,-1974.2039092483521
70.0,1008.4249028542223,-1247.4967707182825,-1491.835703081323,-495.29306310272216,-827.7172108001708,-1966.8024159088134
80.0,1012.3252225426236,-1259.3227200739689,-1479.612228920414,-503.4897964286804,-841.1622491607666,-1959.3091927871703
90.0,1016.1777187682229,-1271.0901649574782,-1467.3197727082977,-511.6630563468933,-854.5680713653564,-1951.7246237945556
100.0,1019.9822352451617,-1282.7985795012044,-1454.9589367386095,-519.812472000122,-867.9340693969726,-1944.0491013641358
110.0,1023.7386205073756,-1294.4474440268862,-1442.5303293558313,-527.9376751594543,-881.2596396789551,-1936.2830263671874
120.0,1027.4467278997936,-1306.0362451532003,-1430.0345648748357,-536.0383003196716,-894.5441831512451,-1928.4268080596923
130.0,1031.1064155797926,-1317.5644758463804,-1417.472263411129,-544.113984741211,-907.7871053619385,-1920.480863937378
140.0,1034.7175465527748,-1329.0316355529917,-1404.8440507630262,-552.1643685455322,-920.9878166046143,-1912.4456196670533
150.0,1038.2799886979299,-1340.4372302493755,-1392.1505582843608,-560.1890947494506,-934.1457320098878,-1904.3215089874268
160.0,1041.7936147726296,-1351.780772560853,-1379.392422730173,-568.1878093605042,-947.2602716674804,-1896.1089735946655
170.0,1045.258302441803,-1363.0617818118826,-1366.5702861364646,-576.1601614112853,-960.3308607177735,-1887.8084630508422
180.0,1048.6739342569258,-1374.279784116859,-1353.6847956976849,-584.1058030433654,-973.3569294281006,-1879.4204346847534
190.0,1052.0403977115893,-1385.434312467521,-1340.7366035875614,-592.0243895606994,-986.3379133453369,-1870.9453534622191
200.0,1055.3575852297577,-1396.5249067830894,-1327.7263668432001,-599.9155794754029,-999.2732533569335,-1862.383691886902
210.0,1058.625394164459,-1407.5511140102492,-1314.6547472097002,-607.7790345954895,-1012.1623957977295,-1853.7359298782349
220.0,1061.8437268308244,-1418.5124881654567,-1301.5224110201527,-615.6144200477601,-1025.004792541504,-1845.0025546798706
230.0,1065.012490474902,-1429.4085904142353,-1288.3300290307357,-623.4214043655395,-1037.7999010772705,-1836.1840607147217
240.0,1068.1315972906687,-1440.23898912375,-1275.078276293576,-631.1996595153809,-1050.5471846008302,-1827.2809494857788
250.0,1071.20096445197,-1451.0032599318247,-1261.7678319749627,-638.9488609580993,-1063.2461121368408,-1818.2937294311523
260.0,1074.2205140683593,-1461.7009858186366,-1248.3993792518247,-646.6686877174377,-1075.8961585845948,-1809.2229158325194
270.0,1077.190173175863,-1472.331757103986,-1234.9736051599891,-654.3588223953248,-1088.496804763794,-1800.069030670166
280.0,1080.109873806633,-1482.895171592324,-1221.4912004038897,-662.018951259613,-1101.047537612915,-1790.8326025009155
290.0,1082.9795528904242,-1493.3908345273965,-1207.9528592597208,-669.6487642555237,-1113.5478501281739,-1781.51416632843
300.0,1085.7991523110518,-1503.8183587005415,-1194.35927939021,-677.2479550704955,-1125.997241531372,-1772.1142634735108
310.0,1088.5686188486638,-1514.1773644524767,-1180.7111617239477,-684.8162211723328,-1138.3952172698976,-1762.633441444397
320.0,1091.287904238834,-1524.4674797725872,-1167.0092102704748,-692.3532638587951,-1150.7412891845704,-1753.072253807068
330.0,1093.9569650837714,-1534.6883402662706,-1153.2541320102555,-699.8587882843018,-1163.034975463867,-1743.4312600479127
340.0,1096.5757628810268,-1544.839589229612,-1139.4466367343487,-707.3325035057068,-1175.275800765991,-1733.7110254516601
350.0,1099.1442639957907,-1554.920877678463,-1125.5874368651305,-714.7741225242614,-1187.4632962799071,-1723.9121209335326
360.0,1101.6624396515615,-1564.9318643734211,-1111.67724734653,-722.1833623161316,-1199.5969997711181,-1714.0351229400635
370.0,1104.1302659045423,-1574.872215845643,-1097.7167854648335,-729.5599438705444,-1211.6764556427001,-1704.08061328125
380.0,1106.5477236399502,-1584.7416064233716,-1083.7067707191577,-736.903592212677,-1223.701214996338,-1694.0491790161134
390.0,1108.9147984965277,-1594.5397182364727,-1069.6479246724093,-744.2140364494323,-1235.6708356323243,-1683.9414122924804
400.0,1111.2314809274328,-1604.2662412681511,-1055.540970778659,-751.4910097885132,-1247.5848821868897,-1673.7579102172851
410.0,1113.497766121285,-1613.9208733455105,-1041.3866342543354,-758.7342495689392,-1259.4429261169435,-1663.499274711609
420.0,1115.71365396837,-1623.5033201525105,-1027.1856419460798,-765.943497291565,-1271.2445457305907,-1653.1661123809815
430.0,1117.879149045595,-1633.0132952358915,-1012.9387221448932,-773.118498638153,-1282.989326248169,-1642.7590343399047
440.0,1119.9942606492968,-1642.4505200510434,-998.6466044731842,-780.2590034942627,-1294.6768598937988,-1632.2786561279297
450.0,1122.059002652388,-1651.8147239055763,-984.3100197229102,-787.3647659759522,-1306.3067458190917,-1621.7255975036621
460.0,1124.0733935536014,-1661.1056440100258,-969.9296997028613,-794.4355444488525,-1317.8785902252198,-1611.1004823303222
470.0,1126.03745641259,-1670.3230254437497,-955.506377137239,-801.4711015396118,-1329.3920063323974,-1600.4039384536743
480.0,1127.951218844721,-1679.466621180547,-941.0407854539818,-808.4712041587829,-1340.8466144714355,-1589.6365975112915
490.0,1129.8147129647664,-1688.5361920796843,-926.5336586984339,-815.4356235237121,-1352.2420420684814,-1578.799094833374
500.0,1131.627975326303,-1697.5315068372195,-911.9857313841128,-822.3641351547241,-1363.5779236297608,-1567.8920692749023
510.0,1133.3910469329985,-1706.452342016853,-897.3977383162979,-829.2565188980102,-1374.85390083313,-1556.9161630630492
520.0,1135.1039731953447,-1715.2984820438787,-882.7704145000375,-836.1125589408874,-1386.0696225280763,-1545.872021697998
530.0,1136.7668038397678,-1724.0697191323516,-868.1044949815577,-842.932043800354,-1397.2247446899414,-1534.760293762207
540.0,1138.3795929264286,-1732.7658533373499,-853.4007147067083,-849.7147663650512,-1408.3189305114747,-1523.5816308059693
550.0,1139.9423987717819,-1741.3866924767362,-838.6598083909716,-856.460523864746,-1419.3518503570556,-1512.336687187195
560.0,1141.455283935544,-1749.93205214891,-823.8825103885526,-863.1691179008484,-1430.3231818084716,-1501.026119949341
570.0,1142.9183151326831,-1758.4017556729448,-809.0695545619055,-869.8403544387818,-1441.2326096191407,-1489.6505886611938
580.0,1144.3315632566694,-1766.7956341009756,-794.2216741468789,-876.4740438079834,-1452.0798257904053,-1478.210755302429
590.0,1145.69510325485,-1775.1135261390898,-779.339601632408,-883.0700007057189,-1462.8645294799805,-1466.7072840957642
600.0,1147.0090141549936,-1783.3552781701987,-764.4240686055779,-889.628044204712,-1473.5864270935058,-1455.1408413772583
610.0,1148.2733789483132,-1791.5207441573784,-749.4758056729487,-896.1479977302552,-1484.2452321777344,-1443.5120954666138
620.0,1149.488284621179,-1799.6097856740137,-734.4955422856175,-902.6296890716553,-1494.8406655273438,-1431.8217165222168
630.0,1150.6538220337877,-1807.622271816421,-719.4840066530979,-909.072950378418,-1505.372455078125,-1420.0703764038085
640.0,1151.77008589817,-1815.55807917203,-704.4419256250744,-915.4776181411743,-1515.8403359222411,-1408.258748550415
650.0,1152.8371747754752,-1823.417091819272,-689.3700245270295,-921.8435331954956,-1526.2440503692626,-1396.3875078277588
660.0,1153.85519092541,-1831.1992012110854,-674.2690270988604,-928.1705407066345,-1536.5833477935792,-1384.4573303985596
670.0,1154.8242403449633,-1838.9043061854152,-659.1396553473174,-934.4584901618957,-1546.857984725952,-1372.4688936004638
680.0,1155.7444326582547,-1846.5323128916336,-643.9826294414245,-940.7072353553772,-1557.0677247772217,-1360.4228758010863
690.0,1156.6158811426455,-1854.0831347685335,-628.7986675965594,-946.9166343765258,-1567.212338684082,-1348.3199562911987
700.0,1157.4387025552548,-1861.5566924464329,-613.5884859789599,-953.0865495986939,-1577.2916041717529,-1336.1608151245118
710.0,1158.2130171873573,-1868.9529137404795,-598.3527985852168,-959.2168476676941,-1587.3053060302734,-1323.9461330184936
720.0,1158.9389487595045,-1876.2717335618513,-583.0923171381795,-965.3073994636536,-1597.2532360382081,-1311.6765912094115
730.0,1159.6166243864666,-1883.5130939020216,-567.807750980786,-971.3580801200867,-1607.1351929626464,-1299.3528713378905
740.0,1160.246174493865,-1890.6769437121413,-552.4998069922959,-977.3687689666748,-1616.9509824676513,-1286.975655319214
750.0,1160.8277328038298,-1897.7632389161115,-537.1691894719531,-983.3393495368957,-1626.7004171600342,-1274.5456252365113
760.0,1161.3614362618541,-1904.7719423060785,-521.8166000347438,-989.2697095375061,-1636.3833165130616,-1262.0634631958008
770.0,1161.8474249752805,-1911.7030234822657,-506.44273754486665,-995.1597408180237,-1645.9995068206788,-1249.5298512344361
780.0,1162.285842148391,-1918.5564588016434,-491.04829799347254,-1001.0093393669129,-1655.5488211669922,-1236.9454711761475
790.0,1162.6768340640415,-1925.3322313230133,-475.63397443476504,-1006.8184052734375,-1665.0310994110107,-1224.3110045547485
800.0,1163.0205499740186,-1932.030330709908,-460.20045687323307,-1012.5868427085876,-1674.4461880950928,-1211.6271324539184
810.0,1163.317142112142,-1938.650753201512,-444.7484321750838,-1018.3145598945617,-1683.7939404754638,-1198.8945354232787
820.0,1163.566765560301,-1945.193501506093,-429.27858402236376,-1024.0014690818787,-1693.0742163848877,-1186.113893371582
830.0,1163.7695782551666,-1951.658584775752,-413.7915927761093,-1029.6474865264893,-1702.2868822784424,-1173.2858854370118
840.0,1163.9257408899934,-1958.0460184890721,-398.28813543915425,-1035.252532447815,-1711.43181111145,-1160.4111898956298
850.0,1164.0354168893136,-1964.3558244332808,-382.76888555174753,-1040.8165310211182,-1720.5088823547362,-1147.4904840545655
860.0,1164.0987723382702,-1970.5880305924331,-367.23451313583496,-1046.3394103279113,-1729.5179819030761,-1134.524444152832
870.0,1164.1159759207121,-1976.7426710779364,-351.6856846073775,-1051.8211023254394,-1738.459002029419,-1121.5137452468873
880.0,1164.0871988432355,-1982.8197860712712,-336.12306270811195,-1057.2615428390502,-1747.3318413238526,-1108.4590611114502
890.0,1164.0126148484435,-1988.819421750546,-320.5473064364003,-1062.660671497345,-1756.1364046936035,-1095.361064163208
900.0,1163.8924000914126,-1994.7416302076495,-304.9590709681574,-1068.018431728363,-1764.8726032562256,-1082.2204253311156
910.0,1163.7267330823236,-2000.5864693584383,-289.3590076305644,-1073.3347707099915,-1773.5403542633057,-1069.0378139953614
920.0,1163.5157946842805,-2006.354002896911,-273.74776379825533,-1078.6096393356324,-1782.1395811157226,-1055.8138978805541
930.0,1163.2597680174317,-2012.0443002074137,-258.125982830059,-1083.8429921875,-1790.6702132720948,-1042.5493429489136
940.0,1162.9588384240199,-2017.6574362823544,-242.4943040366635,-1089.034787498474,-1799.132186187744,-1029.2448133392334
950.0,1162.6131933643587,-2023.1934916380455,-226.85336262456352,-1094.1849871177674,-1807.5254412231445,-1015.9009712677002
960.0,1162.2230224246816,-2028.6525522558425,-211.20378961930436,-1099.2935564727784,-1815.8499256439209,-1002.5184769439697
970.0,1161.7885172383076,-2034.0347094935817,-195.5462118037761,-1104.36046452713,-1824.1055925445557,-989.0979884719849
980.0,1161.3098714064647,-2039.3400600033126,-179.88125172415994,-1109.385683757782,-1832.2924007415772,-975.6401618118286
990.0,1160.7872804851538,-2044.568705660116,-164.2095275710969,-1114.3691901054383,-1840.4103147735595,-962.1456506500244
1000.0,1160.2209418830196,-2049.720753467341,-148.53165318471403,-1119.3109629364014,-1848.4593047790527,-948.6151063537598
1010.0,1159.6110548817023,-2054.7963155275215,-132.84823796590882,-1124.210985019684,-1856.4393465270996,-935.0491778869629
1020.0,1158.9578204778813,-2059.79550887043,-117.15988689569069,-1129.0692424621582,-1864.3504212036132,-921.4485117416382
1030.0,1158.2614414360603,-2064.7184554788937,-101.46720040294923,-1133.8857247009278,-1872.1925155181884,-907.8137518386841
1040.0,1157.522122141183,-2069.5652821136064,-85.7707744391329,-1138.6604244308471,-1879.9656214752197,-894.1455395126343
1050.0,1156.7400686300948,-2074.336120316626,-70.07120034355367,-1143.3933375968934,-1887.6697364501954,-880.4445133972168
1060.0,1155.915488471438,-2079.0311062626456,-54.36906484519539,-1148.0844633331299,-1895.3048630218507,-866.7113093566894
1070.0,1155.0485907652437,-2083.6503807341196,-38.66495004932931,-1152.7338039283752,-1902.871008972168,-852.9465604705811
1080.0,1154.1395860509688,-2088.194088988616,-22.959433372115715,-1157.3413647842408,-1910.3681871643066,-839.1508969116211
1090.0,1153.188686299526,-2092.662380738132,-7.253087527217111,-1161.9071543807984,-1917.7964155426025,-825.3249459304809
1100.0,1152.1961048113365,-2097.0554100199297,8.45351950558077,-1166.4311842346192,-1925.1557169952393,-811.4693317642212
1110.0,1151.1620561945717,-2101.373335126926,24.159824490077213,-1170.9134688491822,-1932.4461193084717,-797.5846756057739
1120.0,1150.0867563358424,-2105.6163185527575,39.86526897771785,-1175.354025680542,-1939.6676551361084,-783.6715955429078
1130.0,1148.9704223218196,-2109.784526901884,55.569299342482005,-1179.7528751029968,-1946.820361907959,-769.7307064819336
1140.0,1147.8132723931178,-2113.8781307871564,71.27136677298206,-1184.1100403518676,-1953.9042817382813,-755.7626201171875
1150.0,1146.6155259026157,-2117.897304785941,86.9709272827392,-1188.4255475006103,-1960.9194613800048,-741.7679449005127
1160.0,1145.37740326146,-2121.842227324097,102.66744177853177,-1192.6994253997802,-1967.8659521484376,-727.7472859344482
1170.0,1144.0991259116247,-2125.713080644277,118.36037602844206,-1196.931705657959,-1974.7438098754883,-713.7012449874878
1180.0,1142.780916263788,-2129.5100506901263,134.04920069610688,-1201.1224225769042,-1981.5530948181151,-699.6304204177857
1190.0,1141.4229976383397,-2133.233327040201,149.73339135353407,-1205.271613132477,-1988.2938715820312,-685.5354071273804
1200.0,1140.0255942563117,-2136.8831028439963,165.4124284894259,-1209.3793169174194,-1994.9662090911866,-671.4167965393067
1210.0,1138.5889311664134,-2140.459574727115,181.08579751004152,-1213.445576107025,-2001.570180480957,-657.2751765518188
1220.0,1137.1132342059311,-2143.9629427212467,196.7529887771972,-1217.4704354133605,-2008.1058630523682,-643.1111314773559
1230.0,1135.5987299521314,-2147.3934101899627,212.41349757272215,-1221.4539420547485,-2014.573338180542,-628.9252420425415
1240.0,1134.045645703643,-2150.7511837580196,228.0668241349823,-1225.3961456985473,-2020.9726912841797,-614.7180853347778
1250.0,1132.4542094079536,-2154.0364732214284,243.71247365277156,-1229.2970984306335,-2027.30401171875,-600.4902347640991
1260.0,1130.8246496425113,-2157.2494915066786,259.3499562671465,-1233.156854724884,-2033.5673927459716,-586.2422600479126
1270.0,1129.1571955635804,-2160.3904545485047,274.9787870913263,-1236.9754713668824,-2039.7629314422607,-571.9747271499634
1280.0,1127.4520768523582,-2163.459581259763,290.598486167664,-1240.753007461548,-2045.8907286224364,-557.6881982955932
1290.0,1125.7095236917105,-2166.4570934305566,306.20857851197877,-1244.4895243530273,-2051.9508887939455,-543.3832319030762
1300.0,1123.9297667545172,-2169.3832156859876,321.80859408151707,-1248.1850856018066,-2057.943520111084,-529.0603825988769
1310.0,1122.113037088052,-2172.238175373271,337.3980677851802,-1251.839756942749,-2063.868734237671,-514.7202011489868
1320.0,1120.259566143782,-2175.0222025221437,352.9765394826421,-1255.4536062431334,-2069.726646347046,-500.36323445892333
1330.0,1118.3695857272057,-2177.7355297852023,368.5435539546242,-1259.0267034721373,-2075.5173750457766,-485.99002557373046
1340.0,1116.4433279439138,-2180.3783923358274,384.09866094311985,-1262.5591206436156,-2081.2410422973635,-471.6011136016846
1350.0,1114.4810251615943,-2182.951027808254,399.64141507362086,-1266.0509317893982,-2086.8977733306883,-457.1970337600708
1360.0,1112.4829099765102,-2185.4536762395537,415.1713759061479,-1269.5022129211425,-2092.487696609497,-442.77831730651855
1370.0,1110.4492152258128,-2187.886580010486,430.68810791551715,-1272.9130419807434,-2098.01094380188,-428.34549154663085
1380.0,1108.3801738712546,-2190.2499837563155,446.1911804326943,-1276.2834988174438,-2103.4676496276857,-413.8990798339844
1390.0,1106.2760190117122,-2192.544134305747,461.6801677072092,-1279.6136651382446,-2108.8579518585207,-399.43960150146484
1400.0,1104.136983860594,-2194.7692806265177,477.15464881373015,-1282.9036244659424,-2114.181991241455,-384.96757192993164
1410.0,1101.9633017050423,-2196.9256737711917,492.6142077245628,-1286.1534621162414,-2119.4399114685057,-370.48350245666506
1420.0,1099.755205817729,-2199.0135667592285,508.0584332093645,-1289.3632651481628,-2124.631859008789,-355.98790041351316
1430.0,1097.512929532145,-2201.0332145961393,523.4869188835071,-1292.5331223335265,-2129.7579832000733,-341.4812691116333
1440.0,1095.2367061236466,-2202.9848741419255,538.8992631514917,-1295.6631241149903,-2134.8184360656737,-326.9641078262329
1450.0,1092.9267688046928,-2204.8688040720294,554.2950692144361,-1298.7533625679016,-2139.8133722991943,-312.43691178131104
1460.0,1090.5833507018313,-2206.6852648326353,569.6739450252459,-1301.8039313812255,-2144.742949203491,-297.9001721725464
1470.0,1088.206684840344,-2208.434518556629,585.0355032979309,-1304.8149257888795,-2149.6073266448975,-283.35437613677976
1480.0,1085.7970040815555,-2210.1168290249543,600.3793614855682,-1307.7864425697326,-2154.4066669769286,-268.80000674438475
1490.0,1083.3545411064931,-2211.7324615858697,615.7051417218095,-1310.718579990387,-2159.1411349639893,-254.23754302978514
1500.0,1080.8795284243706,-2213.2816831214263,631.0124708484417,-1313.6114377746583,-2163.810897781372,-239.6674599609375
1510.0,1078.372198270781,-2214.764761962649,646.3009803553468,-1316.465117073059,-2168.4161248779296,-225.09022844696045
1520.0,1075.8327826658956,-2216.1819678628253,661.5703063912496,-1319.2797204208373,-2172.956988006592,-210.50631533813475
1530.0,1073.2615133423585,-2217.533571924125,676.8200897224357,-1322.0553517112733,-2177.4336611175536,-195.9161834259033
1540.0,1070.6586217023664,-2218.819846542691,692.0499756818745,-1324.7921161651611,-2181.8463202819826,-181.32029146575928
1550.0,1068.0243388523565,-2220.0410653666277,707.2596142022752,-1327.4901202850342,-2186.1951437072753,-166.7190941467285
1560.0,1065.3588955196399,-2221.1975032204828,722.4486597548898,-1330.1494718284607,-2190.48031161499,-152.11304210662843
1570.0,1062.662522049925,-2222.289436077694,737.6167713091908,-1332.7702797851562,-2194.702006210327,-137.50258196258545
1580.0,1059.935448425626,-2223.317141010512,752.7636123671645,-1335.3526543312073,-2198.860411682129,-122.88815627288818
1590.0,1057.1779041584032,-2224.2808960983502,767.8888508493242,-1337.8967067985534,-2202.9557140350344,-108.27020359039307
1600.0,1054.3901183454147,-2225.180980425692,782.9921591527518,-1340.4025496520997,-2206.9881011505126,-93.64915842437745
1610.0,1051.5723196112265,-2226.0176740092297,798.073214074322,-1342.8702964515685,-2210.9577626800537,-79.02545127868652
