sat1Name,LLO-0-3
sat1Smaj,3416.853
sat1Ecc,0.359146
sat1Inc,90.188
sat1RAAN,236.221
sat1ArgPer,292.93
sat1TrAnom,0
Time[EpSec],xF[km],yF[km],zF[km],xI[km],yI[km],zI[km]
0.0,947.544345202207,-1180.384468731702,-1582.2943607626419,-468.82778620147707,-712.7842446594238,-2016.6661478042602
10.0,951.1650978262448,-1192.9230014601192,-1570.7015333456852,-477.76797507476806,-726.1091439208984,-2009.8226067733765
20.0,954.7407700145316,-1205.4060223603676,-1559.0353611262226,-486.68585441207887,-739.4001372833252,-2002.8852163848876
30.0,958.2712011144765,-1217.832950374341,-1547.2963943488417,-495.5810095100403,-752.6566067047119,-1995.8543076248168
40.0,961.756234929822,-1230.2032100198417,-1535.4851902140742,-504.45302794647216,-765.8779376525879,-1988.7302205047608
50.0,965.1957197006182,-1242.516231484035,-1523.6023127557185,-513.3014996719361,-779.0635191802978,-1981.5133039627076
60.0,968.589508134824,-1254.7714507324429,-1511.6483327221042,-522.1260170898438,-792.2127440490723,-1974.2039157867432
70.0,971.9374574416761,-1266.9683095985756,-1499.6238274776804,-530.9261751174927,-805.3250088348389,-1966.8024225540162
80.0,975.2394293602101,-1279.1062559316645,-1487.5293808580614,-539.7015712890625,-818.3997140808106,-1959.3091995391846
90.0,978.4952901940029,-1291.184743666898,-1475.3655830775087,-548.4518058128357,-831.4362643890381,-1951.7246306533814
100.0,981.7049107876944,-1303.2032329293925,-1463.1330305864146,-557.1764816589356,-844.4340685119629,-1944.049108329773
110.0,984.8681665844683,-1315.1611901331457,-1450.8323259470715,-565.875204624176,-857.3925394897461,-1936.2830334472656
120.0,987.984937659473,-1327.0580880999337,-1438.4640776949352,-574.5475834159851,-870.3110947875977,-1928.4268152389527
130.0,991.0551086969296,-1338.893406123844,-1426.0289002563502,-583.1932297172547,-883.1891563415527,-1920.4808712234496
140.0,994.0785690118475,-1350.666630071207,-1413.5274137606127,-591.8117582626343,-896.0261506958008,-1912.4456270599364
150.0,997.0552125953791,-1362.3772524741335,-1400.9602439286896,-600.4027868995666,-908.8215091247558,-1904.3215164794922
160.0,999.9849380821578,-1374.024772618663,-1388.328021963489,-608.9659366760254,-921.5746676940918,-1896.1089811935424
170.0,1002.867648795467,-1385.6086966168232,-1375.6313843696184,-617.5008318862915,-934.2850673980713,-1887.8084707565308
180.0,1005.7032527377132,-1397.128537500663,-1362.8709728591525,-626.007100151062,-946.9521542358399,-1879.4204424972534
190.0,1008.4916626055327,-1408.5838152893093,-1350.047434182786,-634.4843724746704,-959.5753793182373,-1870.9453613815308
200.0,1011.2327957975934,-1419.9740570820118,-1337.161419988869,-642.9322833175659,-972.1541989746094,-1862.3836999053956
210.0,1013.926574390794,-1431.2987971094385,-1324.2135867201375,-651.350470653534,-984.688074798584,-1853.73593800354
220.0,1016.5729251786038,-1442.5575768091048,-1311.2045954263403,-659.7385760192872,-997.1764737854004,-1845.002562904358
230.0,1019.171779672691,-1453.7499449171974,-1298.1351116430349,-668.0962445945739,-1009.6188684234619,-1836.184069038391
240.0,1021.7230740519599,-1464.8754575009607,-1285.005805259116,-676.4231252479553,-1022.0147367248535,-1827.2809579086304
250.0,1024.2267492135545,-1475.9336780355754,-1271.8173503433898,-684.7188705940247,-1034.3635623626708,-1818.2937379608154
260.0,1026.682750738972,-1486.9241774631048,-1258.5704250073518,-692.9831370468139,-1046.6648347320556,-1809.2229244613648
270.0,1029.091028893585,-1497.8465342413956,-1245.2657112961872,-701.2155848731994,-1058.9180490112306,-1800.0690394058227
280.0,1031.451538645095,-1508.7003344204168,-1231.9038949659762,-709.4158782501221,-1071.1227062988282,-1790.8326113357543
290.0,1033.7642396116958,-1519.485171666972,-1218.4856654122189,-717.5836853103638,-1083.2783136138917,-1781.514175262451
300.0,1036.0290960564414,-1530.2006473116871,-1205.0117154788368,-725.718678188324,-1095.3843839874266,-1772.1142724990846
310.0,1038.2460769197446,-1540.8463704203996,-1191.4827413317985,-733.8205330696106,-1107.440436569214,-1762.6334505691527
320.0,1040.4151557576836,-1551.4219578138302,-1177.8994422843366,-741.8889302368163,-1119.4459966583252,-1753.0722630310058
330.0,1042.5363107655178,-1561.9270341225213,-1164.2625206694966,-749.9235541114807,-1131.4005957946777,-1743.4312693786621
340.0,1044.6095246856335,-1572.3612317819343,-1150.5726816899414,-757.9240932960511,-1143.3037717437744,-1733.7110348739625
350.0,1046.6347849140836,-1582.7241911410745,-1136.8306332569068,-765.8902406120301,-1155.1550686950684,-1723.9121304550172
360.0,1048.6120833630105,-1593.0155604250037,-1123.037085856147,-773.821693145752,-1166.954037185669,-1714.03513256073
370.0,1050.5414165031941,-1603.2349957854035,-1109.1927523810411,-781.7181522712707,-1178.700234222412,-1704.0806230010987
380.0,1052.4227853132822,-1613.382161338063,-1095.2983479998811,-789.5793237075806,-1190.393223312378,-1694.0491888275146
390.0,1054.256195284177,-1623.4567291678466,-1081.3545900126462,-797.4049175224304,-1202.0325745239259,-1683.941422203064
400.0,1056.0416563728709,-1633.4583793538668,-1067.362197663204,-805.19464818573,-1213.6178645324708,-1673.7579202194213
410.0,1057.7791829665973,-1643.3867999878814,-1053.321892055276,-812.9482346000672,-1225.1486766357423,-1663.4992848129273
420.0,1059.4687938860986,-1653.2416871903715,-1039.2343959409366,-820.6654001159668,-1236.624600845337,-1653.1661225738526
430.0,1061.1105123355399,-1663.0227451101293,-1025.1004336141964,-828.3458725624084,-1248.0452338867187,-1642.759044631958
440.0,1062.7043658639968,-1672.7296859338119,-1010.9207307647513,-835.9893842773438,-1259.4101792297363,-1632.2786665115357
450.0,1064.250386375688,-1682.3622299154813,-996.6960143016505,-843.5956721267701,-1270.7190471801757,-1621.7256079788208
460.0,1065.7486100211697,-1691.920105338788,-982.4270122420248,-851.1644775314331,-1281.9714548187255,-1611.1004928970337
470.0,1067.1990772612967,-1701.403048548519,-968.1144535587827,-858.6955464668274,-1293.167026123047,-1600.4039491119386
480.0,1068.6018327515028,-1710.8108039398091,-953.7590680149118,-866.1886295127869,-1304.3053919372558,-1589.6366082611084
490.0,1069.9569253397394,-1720.1431239420679,-939.3615860604209,-873.6434818420411,-1315.3861900024415,-1578.7991056747437
500.0,1071.26440802183,-1729.3997690248095,-924.9227386648504,-881.0598632545472,-1326.4090649871825,-1567.8920802078246
510.0,1072.5243379066912,-1738.5805076690178,-910.4432571705099,-888.4375381736755,-1337.3736685028075,-1556.9161740875245
520.0,1073.7367762030312,-1747.6851163927297,-895.923873182794,-895.7762756729126,-1348.27965914917,-1545.872032814026
530.0,1074.9017881244054,-1756.7133796846313,-881.3653184114289,-903.0758494720459,-1359.126702468872,-1534.7603049697875
540.0,1076.0194428706798,-1765.665090002689,-866.7683245456989,-910.3360379524231,-1369.9144709777831,-1523.5816420974731
550.0,1077.0898136176415,-1774.5400477909916,-852.1336231039242,-917.5566241722107,-1380.6426442260743,-1512.3366985626221
560.0,1078.1129774533147,-1783.3380614081286,-837.4619453243962,-924.7373958473206,-1391.3109087524415,-1501.0261314163208
570.0,1079.0890152889463,-1792.0589471108608,-822.7540220083654,-931.8781453819275,-1401.9189580688476,-1489.6506002197266
580.0,1080.0180118850697,-1800.7025290462568,-808.0105834055042,-938.9786698493957,-1412.4664927215576,-1478.2107669448853
590.0,1080.900055797839,-1809.2686392298635,-793.2323590725625,-946.0387710075379,-1422.9532202911378,-1466.7072958221436
600.0,1081.7352392540722,-1817.7571174484194,-778.4200777733779,-953.0582552833557,-1433.3788552856445,-1455.140853187561
610.0,1082.5236582229622,-1826.1678113189862,-763.5744673076396,-960.0369337844849,-1443.7431192932129,-1443.5121073608398
620.0,1083.2654122693775,-1834.5005761785928,-748.6962544295873,-966.9746222839356,-1454.0457408447267,-1431.8217285003661
630.0,1083.9606045533005,-1842.7552750755262,-733.7861647106893,-973.8711412200928,-1464.2864554595947,-1420.0703884735108
640.0,1084.6093417680395,-1850.9317787256089,-718.8449224045853,-980.726315689087,-1474.4650056304931,-1408.2587607040405
650.0,1085.2117341258217,-1859.0299654837736,-703.8732503428739,-987.5399754295349,-1484.581140838623,-1396.3875200653076
660.0,1085.7678952313454,-1867.0497212681807,-688.8718698147237,-994.3119548301697,-1494.6346174621583,-1384.4573427124024
670.0,1086.2779421104976,-1874.9909395343352,-673.8415004725802,-1001.0420928955078,-1504.6251988220215,-1372.46890599823
680.0,1086.7419951116153,-1882.8535212293016,-658.7828601674257,-1007.7302332496643,-1514.5526551513672,-1360.4228882827758
690.0,1087.160177883355,-1890.6373747369453,-643.6966648902325,-1014.3762241210937,-1524.4167635650635,-1348.3199688568116
700.0,1087.5326172762782,-1898.34241580716,-628.5836286277813,-1020.9799183158874,-1534.217308013916,-1336.1608277664184
710.0,1087.85944336705,-1905.96856754093,-613.4444632876546,-1027.5411732139587,-1543.9540793151855,-1323.9461457443238
720.0,1088.140789338377,-1913.5157603126681,-598.2798785385596,-1034.0598507499694,-1553.6268750915528,-1311.6766040115356
730.0,1088.3767914269954,-1920.983931687657,-583.0905817836513,-1040.5358173828124,-1563.2354996948243,-1299.3528842163087
740.0,1088.5675889608578,-1928.3730264325557,-567.8772779718907,-1046.9689440879822,-1572.7797643127442,-1286.9756682739257
750.0,1088.713324158569,-1935.6829963785217,-552.6406695882943,-1053.3591063346862,-1582.2594867553712,-1274.545638267517
760.0,1088.8141422133199,-1942.913800417991,-537.3814564810377,-1059.706184059143,-1591.6744915771485,-1262.06347631073
770.0,1088.8701911693943,-1950.0654044143473,-522.1003357898317,-1066.010061641693,-1601.0246099700928,-1249.529864425659
780.0,1088.8816218556644,-1957.1377811330083,-506.7980018779227,-1072.2706278877258,-1610.3096797027588,-1236.9454844436646
790.0,1088.8485878776328,-1964.1309102009382,-491.4751462281945,-1078.4877759971619,-1619.529545135498,-1224.3110178985596
800.0,1088.7712455403425,-1971.0447780163447,-476.13245732605725,-1084.6614035339355,-1628.684057159424,-1211.6271458740234
810.0,1088.6497537832277,-1977.8793776850493,-460.7706206055443,-1090.7914124069214,-1637.773073135376,-1198.8945489196778
820.0,1088.4842741639554,-1984.6347089857727,-445.39031833820883,-1096.8777088470458,-1646.7964569091796,-1186.1139069366454
830.0,1088.2749707605437,-1991.3107782413344,-429.99222958919137,-1102.9202033500671,-1655.7540786895752,-1173.285899078369
840.0,1088.0220101144594,-1997.9075982834358,-414.57703008890434,-1108.9188106842041,-1664.645815032959,-1160.411203605652
850.0,1087.72556124254,-2004.425188391963,-399.1453921920812,-1114.8734498252868,-1673.4715488433837,-1147.4904978408813
860.0,1087.3857954894,-2010.8635741884316,-383.69798478918756,-1120.7840439529418,-1682.2311692352296,-1134.524458015442
870.0,1087.0028865368386,-2017.2227875748822,-368.2354732172669,-1126.650520389557,-1690.924571548462,-1121.5137591781615
880.0,1086.5770103526506,-2023.5028667011063,-352.7585191940079,-1132.4728106002808,-1699.5516573181153,-1108.4590751113892
890.0,1086.1083450925719,-2029.703855813493,-337.267780779956,-1138.2508501205443,-1708.112334136963,-1095.3610782318115
900.0,1085.5970710756994,-2035.825805237681,-321.7639122669258,-1143.9845785560608,-1716.6065156707764,-1082.220439476013
910.0,1085.0433707094933,-2041.8687712680655,-306.2475641294863,-1149.6739395256043,-1725.0341215667725,-1069.0378282089234
920.0,1084.447428501937,-2047.83281613201,-290.71938296345564,-1155.3188806266785,-1733.3950774688722,-1055.8139121627808
930.0,1083.8094308838597,-2053.7180078509623,-275.1800114293405,-1160.9193534088135,-1741.6893148345948,-1042.5493572998048
940.0,1083.1295662848534,-2059.5244202266617,-259.63008817469796,-1166.4753133354186,-1749.9167710113525,-1029.2448277587891
950.0,1082.4080250069253,-2065.2521327114714,-244.07024779609475,-1171.9867197227477,-1758.077389099121,-1015.9009857559204
960.0,1081.644999187996,-2070.901230362749,-228.5011207662134,-1177.453535736084,-1766.171117919922,-1002.518491493225
970.0,1080.84068275657,-2076.4718037485286,-212.9233333950151,-1182.8757283248901,-1774.197911956787,-989.0980030899048
980.0,1079.995271349979,-2081.9639488579005,-197.3375077805894,-1188.2532681961059,-1782.157731262207,-975.6401764907837
990.0,1079.1089623344278,-2087.377767047357,-181.74426174099779,-1193.586129760742,-1790.0505414733886,-962.145665397644
1000.0,1078.181954653387,-2092.7133649271627,-166.14420877428108,-1198.8742911071777,-1797.8763136596679,-948.6151211624145
1010.0,1077.214448865355,-2097.970854322476,-150.5379580323751,-1204.117733959198,-1805.6350243377685,-935.0491927642822
1020.0,1076.2066470284103,-2103.150352143473,-134.92611424176326,-1209.3164436264037,-1813.3266553497315,-921.4485266723633
1030.0,1075.1587526915414,-2108.2519803355203,-119.30927770894021,-1214.4704089622498,-1820.9511938323974,-907.8137668380738
1040.0,1074.070970838241,-2113.275865806344,-103.6880442327325,-1219.5796223335267,-1828.5086321716308,-894.1455545806884
1050.0,1072.9435078123445,-2118.2221403123394,-88.06300508268049,-1224.6440795669555,-1835.9989678955078,-880.4445285186767
1060.0,1071.776571286327,-2123.090940387704,-72.43474700203386,-1229.6637799072266,-1843.4222036132812,-866.711324546814
1070.0,1070.5703702251485,-2127.8824072988687,-56.803852095567855,-1234.6387259864807,-1850.7783470153809,-852.9465757141113
1080.0,1069.325114806599,-2132.5966868961636,-41.170897887887435,-1239.5689237594604,-1858.0674107055663,-839.1509122161865
1090.0,1068.0410164121945,-2137.2339296072964,-25.53645720765204,-1244.454382484436,-1865.2894122467042,-825.3249612884522
1100.0,1066.718287537103,-2141.7942902863315,-9.901098231855082,-1249.295114654541,-1872.44437399292,-811.4693471832276
1110.0,1065.3571417554297,-2146.2779281793755,5.734615585681051,-1254.091135986328,-1879.5323230743409,-797.5846910858154
1120.0,1063.957793738683,-2150.6850068414888,21.370125534935273,-1258.8424653358459,-1886.5532913818358,-783.6716110839844
1130.0,1062.520459076313,-2155.0156940111606,37.00487765843852,-1263.5491246871948,-1893.5073153686524,-769.730722076416
1140.0,1061.0453543694716,-2159.2701615991696,52.638322779236944,-1268.211139099121,-1900.394436126709,-755.762635772705
1150.0,1059.532697092451,-2163.4485855477797,68.26991651334869,-1272.8285366516113,-1907.21469921875,-741.767960609436
1160.0,1057.9827055874537,-2167.5511457820753,83.89911931266263,-1277.4013484153747,-1913.968154663086,-727.7473016967773
1170.0,1056.3955990236536,-2171.5780261242307,99.52539644875459,-1281.9296083946228,-1920.6548568572998,-713.7012608032227
1180.0,1054.7715973332804,-2175.529414212594,115.14821804654528,-1286.4133534927369,-1927.274864501953,-699.6304362869263
1190.0,1053.11092116929,-2179.4055014148603,130.76705908950348,-1290.8526234664917,-1933.828240524292,-685.5354230575562
1200.0,1051.4137918945412,-2183.2064827709182,146.38139946215378,-1295.2474608764649,-1940.3150520629883,-671.4168125228882
1210.0,1049.680431500927,-2186.9325568854442,161.9907239038864,-1299.5979110450744,-1946.7353703308106,-657.2751925811767
1220.0,1047.9110626000809,-2190.583925889362,177.5945220646502,-1303.9040220222473,-1953.089270614624,-643.1111475601197
1230.0,1046.105908355155,-2194.16079531698,193.19228849238914,-1308.1658445243836,-1959.3768321533203,-628.9252581787109
1240.0,1044.265192461447,-2197.6633740577777,208.7835226417618,-1312.3834318962097,-1965.5981381072997,-614.7181015243531
1250.0,1042.3891391057007,-2201.0918742904914,224.36772889261576,-1316.556840084076,-1971.7532754974366,-600.4902510070801
1260.0,1040.4779729229213,-2204.446511368847,239.94441653456235,-1320.6861275558472,-1977.8423351135255,-586.2422763366699
1270.0,1038.5319189239106,-2207.7275037763393,255.51309977314367,-1324.7713553009032,-1983.8654114379883,-571.974743484497
1280.0,1036.5512025433852,-2210.9350730555752,271.07329772814796,-1328.8125867500305,-1989.822602645874,-557.6882146835327
1290.0,1034.5360494972535,-2214.0694437004977,286.62453445252766,-1332.8098877525329,-1995.7140104522705,-543.3832483444214
1300.0,1032.4866858261269,-2217.130843117314,302.1663389031473,-1336.7633265266418,-2001.5397401123048,-529.0603990859985
1310.0,1030.4033378440195,-2220.1195015466255,317.6982449729664,-1340.672973613739,-2007.2999003601074,-514.7202176742554
1320.0,1028.2862320728834,-2223.0356519748657,333.2197914296769,-1344.5389018440246,-2012.994603286743,-500.36325103759765
1330.0,1026.135595229028,-2225.8795300727193,348.7305219723082,-1348.3611862869263,-2018.6239643249512,-485.99004219818113
1340.0,1023.9516541829091,-2228.651374125887,364.2299852013387,-1352.1399042129517,-2024.1881021728516,-471.60113027191164
1350.0,1021.7346359334908,-2231.3514249550335,379.7177345815163,-1355.875135044098,-2029.6871387176514,-457.1970504760742
1360.0,1019.4847675725133,-2233.979925860645,395.19332849296734,-1359.566960319519,-2035.121199005127,-442.77833406066895
1370.0,1017.2022762527314,-2236.5371225559297,410.6563301532601,-1363.2154636611938,-2040.4904111480712,-428.345508354187
1380.0,1014.8873891395771,-2239.0232630676783,426.10630767034377,-1366.8207307090759,-2045.7949062652588,-413.8990966796875
1390.0,1012.5403334170181,-2241.4385977099837,441.5428339952517,-1370.3828491020204,-2051.0348184509276,-399.43961839294434
1400.0,1010.1613362162067,-2243.78337898828,456.9654869014972,-1373.9019084281922,-2056.2102846679686,-384.9675888595581
1410.0,1007.7506246062769,-2246.057861543992,472.37384899370943,-1377.3780001831055,-2061.3214447174073,-370.48351943206785
1420.0,1005.3084255611619,-2248.2623020913506,487.7675077048794,-1380.8112177391051,-2066.3684411773684,-355.987917427063
1430.0,1002.834965943751,-2250.3969593595216,503.1460552297399,-1384.2016562957763,-2071.351419342041,-341.4812861709595
1440.0,1000.3304724661729,-2252.4620940038776,518.5090885710482,-1387.5494128341675,-2076.2705271606446,-326.96412492370604
1450.0,997.7951716337262,-2254.4579685591675,533.8562094619767,-1390.8545860977172,-2081.125915145874,-312.43692892456056
1460.0,995.2292897672176,-2256.384847385487,549.1870244003239,-1394.1172765426636,-2085.9177363739013,-297.9001893539429
1470.0,992.6330529796351,-2258.2429966027607,564.5011446101054,-1397.3375862884523,-2090.64614642334,-283.35439334869386
1480.0,990.0066870758785,-2260.03268401126,579.798185988876,-1400.515619102478,-2095.311303237915,-268.8000240020752
1490.0,987.350417599134,-2261.7541790477194,595.0777691534197,-1403.651480342865,-2099.9133671569825,-254.23756032562255
1500.0,984.6644697967437,-2263.4077527364343,610.3395193749232,-1406.7452769355773,-2104.4525008392334,-239.66747728729248
1510.0,981.9490685759492,-2264.993677612412,625.5830665487745,-1409.7971173210144,-2108.9288691864012,-225.0902458114624
1520.0,979.2044384682063,-2266.51222765862,640.8080452060642,-1412.807111431122,-2113.3426392822266,-210.5063327407837
1530.0,976.4308036587785,-2267.963678278007,656.0140944844999,-1415.7753706474305,-2117.693980392456,-195.91620086669923
1540.0,973.6283879028613,-2269.3483062128034,671.2008580741776,-1418.7020077705383,-2121.9830638427734,-181.32030893707275
1550.0,970.7974145339431,-2270.666389487356,686.3679842049833,-1421.5871369743347,-2126.210062988281,-166.71911165618897
1560.0,967.9381064761369,-2271.9182073856036,701.5151256799763,-1424.4308737754823,-2130.3751532287597,-152.11305965423583
1570.0,965.0506861166996,-2273.104040347209,716.6419397499265,-1427.2333350105287,-2134.4785118103027,-137.50259954071046
1580.0,962.1353754194228,-2274.2241699631345,731.748088173982,-1429.9946387786865,-2138.520317932129,-122.88817388153076
1590.0,959.1923958157569,-2275.2788788957,746.8332371328967,-1432.71490442276,-2142.500752593994,-108.27022122955323
1600.0,956.2219682076151,-2276.268450835078,761.8970572507718,-1435.3942524986267,-2146.4199985809328,-93.64917609405518
1610.0,953.2243129516194,-2277.1931704435415,776.9392235285217,-1438.0328047294618,-2150.278240402222,-79.02546898651123
