sat1Name,LLO-4-4
sat1Smaj,3416.853
sat1Ecc,0.359146
sat1Inc,90.188
sat1RAAN,238.221
sat1ArgPer,293.43
sat1TrAnom,0
Time[EpSec],xF[km],yF[km],zF[km],xI[km],yI[km],zI[km]
0.0,977.9215241988478,-1180.1010101474312,-1563.9163413052656,-452.9384509010315,-743.6316145172119,-2009.1445955505371
10.0,981.9625702241166,-1192.3052564461275,-1552.1086700749263,-461.3767779083252,-757.2088759918213,-2002.1612883377074
20.0,985.9571155211668,-1204.4540420883172,-1540.2285222532842,-469.7935607719421,-770.7507793426514,-1995.084489517212
30.0,989.9049800034493,-1216.5468015532201,-1528.2764579965267,-478.18840812683106,-784.256694946289,-1987.9145365524291
40.0,993.8059881585069,-1228.5829748723402,-1516.2530443565947,-486.560930809021,-797.7259967956543,-1980.6517759094238
50.0,997.6599690521233,-1240.5620077366605,-1504.158855105793,-494.9107419471741,-811.1580626220704,-1973.2965629196167
60.0,1001.4667563883727,-1252.4833515929004,-1491.9944706609292,-503.2374570159912,-824.552274017334,-1965.8492617492675
70.0,1005.2261885390017,-1264.3464637654304,-1479.7604779373644,-511.5406939277649,-837.9080165710449,-1958.310245300293
80.0,1008.9381085394465,-1276.150807545004,-1467.4574702620753,-519.8200731010437,-851.2246799468994,-1950.679895149231
90.0,1012.6023641324903,-1287.8958522803794,-1455.086047206951,-528.0752175331115,-864.5016580200195,-1942.9586014251709
100.0,1016.2188078189635,-1299.5810734986358,-1442.6468144999012,-536.3057528610229,-877.7383490142822,-1935.1467627716065
110.0,1019.7872968506304,-1311.2059529945986,-1430.1403838752062,-544.5113074531555,-890.9341555938721,-1927.2447862243653
120.0,1023.307693248386,-1322.769978905156,-1417.5673729669775,-552.691512462616,-904.088484954834,-1919.253087135315
130.0,1026.7798638497002,-1334.2726458202394,-1404.9284051508241,-560.8460018959046,-917.2007489776611,-1911.1720890655517
140.0,1030.2036803109524,-1345.7134548723739,-1392.2241094227284,-568.974412689209,-930.2703643188477,-1903.0022236938476
150.0,1033.5790190950481,-1357.0919137941019,-1379.4551202828263,-577.0763847694396,-943.2967524719238,-1894.7439307174682
160.0,1036.9057615753109,-1368.4075370538596,-1366.6220775681493,-585.1515611114502,-956.2793399810791,-1886.3976577606202
170.0,1040.1837939015634,-1379.659845863121,-1353.7256263401512,-593.1995878219604,-969.217558380127,-1877.9638602294922
180.0,1043.4130071925715,-1390.8483683363631,-1340.7664167312316,-601.2201141700745,-982.1108444824218,-1869.4430012664795
190.0,1046.5932973893434,-1401.972639507807,-1327.7451038178447,-609.2127926864624,-994.9586403198242,-1860.835551589966
200.0,1049.7245653497357,-1413.0322014241394,-1314.662347458458,-617.1772791900635,-1007.7603933258057,-1852.1419893951415
210.0,1052.8067168145847,-1424.0266032120294,-1301.5188121898855,-625.1132328643799,-1020.5155563812256,-1843.3628002624512
220.0,1055.8396624299671,-1434.9554011526386,-1288.3151670455677,-633.0203163146973,-1033.2235879364014,-1834.4984770126343
230.0,1058.823317773853,-1445.8181587434174,-1275.0520854082015,-640.8981956100464,-1045.88395211792,-1825.5495195922852
240.0,1061.7576033070766,-1456.6144467552747,-1261.7302449121225,-648.746540348053,-1058.4961187591553,-1816.5164349822999
250.0,1064.6424444002778,-1467.343843293424,-1248.3503272404407,-656.5650237121582,-1071.059563522339,-1807.3997370300292
260.0,1067.4777713325348,-1478.0059338643703,-1234.9130180245493,-664.3533225135803,-1083.5737679748536,-1798.1999463729858
270.0,1070.2635192709688,-1488.600311401477,-1221.4190066647707,-672.1111172370911,-1096.0382196502685,-1788.917590270996
280.0,1072.9996282921863,-1499.1265763547665,-1207.8689862107058,-679.8380921058655,-1108.4524121551515,-1779.5532025222778
290.0,1075.6860433772904,-1509.584336723606,-1194.2636531564551,-687.5339351119995,-1120.81584526062,-1770.1073232803344
300.0,1078.322714332222,-1519.9732080696842,-1180.6037073735654,-695.1983380699157,-1133.1280248718263,-1760.5804989700318
310.0,1080.9095958825344,-1530.2928136208748,-1166.8898519145712,-702.8309966621399,-1145.3884632263184,-1750.973282157898
320.0,1083.4466475929687,-1540.5427842568706,-1153.1227928361473,-710.4316104660035,-1157.596678894043,-1741.2862313613891
330.0,1085.9338338767486,-1550.722758587624,-1139.3032391121708,-717.9998830223084,-1169.7521968536378,-1731.519910987854
340.0,1088.371123953418,-1560.8323829430901,-1125.431902459662,-725.5355218467712,-1181.8545485229492,-1721.6748911590576
350.0,1090.7584918700309,-1570.8713114415132,-1111.5094971501762,-733.0382384796143,-1193.9032718811036,-1711.7517475585937
360.0,1093.0959164705314,-1580.839206006272,-1097.5367399257009,-740.5077485198974,-1205.8979114837646,-1701.7510613479615
370.0,1095.3833813673775,-1590.7357363851197,-1083.5143498054324,-747.9437716598511,-1217.83801852417,-1691.6734189834594
380.0,1097.6208749249647,-1600.5605801863046,-1069.44304794183,-755.3460317230224,-1229.723150894165,-1681.519412086487
390.0,1099.808390241157,-1610.3134228826011,-1055.323557468866,-762.7142566795349,-1241.5528732299804,-1671.289637298584
400.0,1101.9459251073629,-1619.9939578335093,-1041.1566034035825,-770.048178691864,-1253.3267569274901,-1660.984696182251
410.0,1104.0334819963068,-1629.6018863058175,-1026.9429124132616,-777.3475341377258,-1265.0443802337647,-1650.6051950073243
420.0,1106.0710680506384,-1639.1369174835938,-1012.6832127259102,-784.6120636253357,-1276.7053282775878,-1640.1517446670532
430.0,1108.0586950248487,-1648.598768479701,-998.3782339824508,-791.8415120391845,-1288.3091930847168,-1629.6249605255127
440.0,1109.9963792609767,-1657.987164321757,-984.0287070499552,-799.0356285438537,-1299.8555736236572,-1619.0254622344971
450.0,1111.8841416846626,-1667.3018379796044,-969.6353639331995,-806.1941666069031,-1311.3440758514405,-1608.3538736572266
460.0,1113.722007733752,-1676.5425303623704,-955.1989375847055,-813.3168840370179,-1322.7743127288818,-1597.610822669983
470.0,1115.5100073737149,-1685.7089903155868,-940.720161768734,-820.4035429801941,-1334.1459042816161,-1586.796941040039
480.0,1117.2481749980418,-1694.8009745856323,-926.199770937303,-827.4539099388122,-1345.4584775543212,-1575.9128642730714
490.0,1118.936549452601,-1703.8182478726678,-911.6385000688742,-834.4677558059692,-1356.7116667175294,-1564.9592314834595
500.0,1120.575173962563,-1712.7605827706725,-897.0370845590384,-841.4448558578491,-1367.9051130218506,-1553.936685256958
510.0,1122.1640961241037,-1721.6277597810363,-882.3962600217981,-848.3849897727966,-1379.0384648742677,-1542.8458714675903
520.0,1123.703367841072,-1730.4195672852848,-867.7167622093683,-855.2879416389466,-1390.1113778076171,-1531.6874391784668
530.0,1125.1930452873107,-1739.1358015366854,-852.9993268450916,-862.1534999694824,-1401.1235145111084,-1520.462040473938
540.0,1126.6331888652985,-1747.7762666310132,-838.2446894964363,-868.9814577064515,-1412.0745448303223,-1509.1703303222657
550.0,1128.0238631846223,-1756.3407744992742,-823.4535854505334,-875.7716122207642,-1422.9641457977295,-1497.8129664535522
560.0,1129.365136977409,-1764.8291448575221,-808.6267495492925,-882.5237653236389,-1433.7920016021728,-1486.3906091690064
570.0,1130.6570831263982,-1773.2412052289662,-793.7649160827432,-889.2377232666015,-1444.5578036651611,-1474.903921257019
580.0,1131.8997785290783,-1781.5767908531163,-778.8688186747069,-895.9132967376709,-1455.2612505340576,-1463.3535678253174
590.0,1133.0933041017825,-1789.8357446990367,-763.9391901053124,-902.5503008766175,-1465.902047958374,-1451.7402161407472
600.0,1134.2377447545055,-1798.0179174175432,-748.9767622398075,-909.1485552482605,-1476.4799088745117,-1440.0645355453491
610.0,1135.3331893099976,-1806.1231673182258,-733.9822658376892,-915.7078838653564,-1486.9945534057617,-1428.3271972503662
620.0,1136.3797304351726,-1814.1513602955245,-718.9564305188861,-922.2281151618957,-1497.4457087860108,-1416.5288742675782
630.0,1137.377464651428,-1822.1023698383756,-703.8999845523357,-928.7090820045471,-1507.833109451294,-1404.6702412185668
640.0,1138.3264922548374,-1829.9760769632044,-688.8136547738756,-935.1506216735839,-1518.1564969787598,-1392.7519742202758
650.0,1139.226917226734,-1837.7723701615487,-673.6981664966121,-941.5525758666993,-1528.4156200256348,-1380.7747507629394
660.0,1140.0788472665765,-1845.4911453728646,-658.5542433415286,-947.9147906646729,-1538.6102344055175,-1368.7392495574952
670.0,1140.882393655729,-1853.1323059235108,-643.3826071578519,-954.2371165542603,-1548.7401029815674,-1356.6461504058839
680.0,1141.6376712912195,-1860.6957625107336,-628.1839778890698,-960.5194083862305,-1558.804995742798,-1344.496134086609
690.0,1142.344798547593,-1868.181433097019,-612.9590734912382,-966.7615253791809,-1568.8046896667481,-1332.289882209778
700.0,1143.0038972752886,-1875.589242904736,-597.7086097903115,-972.9633310966492,-1578.7389687805176,-1320.0280770874024
710.0,1143.6150927417632,-1882.9191243350697,-582.4333003929148,-979.1246934318542,-1588.6076240997315,-1307.711401611328
720.0,1144.1785135623863,-1890.1710169288997,-567.1338565995745,-985.2454845924377,-1598.4104535980225,-1295.3405391464235
730.0,1144.6942916665562,-1897.3448673054675,-551.8109872429391,-991.3255810813904,-1608.1472622070312,-1282.9161733551025
740.0,1145.1625622276601,-1904.440629096464,-536.4653986608556,-997.3648636779785,-1617.8178617401122,-1270.4389881362915
750.0,1145.5834636003265,-1911.4582628968824,-521.097794561554,-1003.3632174186706,-1627.4220708770752,-1257.9096674728394
760.0,1145.9571372999342,-1918.3977361885404,-505.70887590326765,-1009.3205315628052,-1636.9597151489259,-1245.3288952941894
770.0,1146.2837279111625,-1925.2590233064516,-490.29934083977,-1015.2366996002197,-1646.430626876831,-1232.697355392456
780.0,1146.5633830525867,-1932.042105330154,-474.86988462645036,-1021.1116191825867,-1655.8346451263428,-1220.015731300354
790.0,1146.7962533068624,-1938.74697006719,-459.42119949871824,-1026.9451921463012,-1665.1716156921386,-1207.2847061538696
800.0,1146.9824921644706,-1945.3736119411449,-443.95397461071343,-1032.7373244514465,-1674.4413910217286,-1194.5049625930785
810.0,1147.1222560054969,-1951.922031969594,-428.4688959309198,-1038.487926174164,-1683.6438302307129,-1181.6771826553345
820.0,1147.2157039977833,-1958.3922376592986,-412.96664618497374,-1044.196911468506,-1692.7787989959718,-1168.8020476684571
830.0,1147.2629980531349,-1964.7842429497957,-397.44790473503133,-1049.8641985435486,-1701.8461695404053,-1155.8802381134033
840.0,1147.2643027623064,-1971.0980681393635,-381.91334754587757,-1055.489709640503,-1710.8458205566405,-1142.912433555603
850.0,1147.2197853850744,-1977.3337398314366,-366.3636470672443,-1061.0733709869385,-1719.77763722229,-1129.8993125228883
860.0,1147.1296157205718,-1983.4912908264992,-350.79947218071624,-1066.6151127815247,-1728.6415110626222,-1116.8415523910523
870.0,1146.9939661258757,-1989.5707600897113,-335.2214881255162,-1072.114869152069,-1737.437339981079,-1103.7398293151855
880.0,1146.8130113877128,-1995.5721926379551,-319.6303564116233,-1077.5725781288147,-1746.165028137207,-1090.5948180847167
890.0,1146.5869287291293,-2001.4956394989579,-304.026734778189,-1082.9881816101074,-1754.8244859466554,-1077.4071920776366
900.0,1146.3158977334256,-2007.3411576213357,-288.4112770835507,-1088.361625328064,-1763.4156300201416,-1064.1776231155395
910.0,1146.0001002429697,-2013.1088097804661,-272.78463330304737,-1093.6928588180542,-1771.938383041382,-1050.9067814102173
920.0,1145.6397203827298,-2018.7986645392727,-257.14744940668135,-1098.9818353767396,-1780.3926738128662,-1037.5953354492187
930.0,1145.2349444350955,-2024.4107961383716,-241.5003673274929,-1104.2285120315553,-1788.7784371185303,-1024.2439519042969
940.0,1144.7859608370425,-2029.945284442475,-225.84402491161578,-1109.432849510193,-1797.095613708496,-1010.8532955703736
950.0,1144.2929600741584,-2035.402214831554,-210.1790558273656,-1114.5948121871947,-1805.3441502075195,-997.4240292282104
960.0,1143.7561346715102,-2040.7816781600945,-194.50608955605048,-1119.714368068695,-1813.5239990844727,-983.956813621521
970.0,1143.1756791156754,-2046.0837706505051,-178.82575130942976,-1124.791488735199,-1821.6351185760498,-970.4523073349
980.0,1142.551789795321,-2051.308593826235,-163.1386619758216,-1129.8261493225098,-1829.6774726257324,-956.9111667098999
990.0,1141.8846649719533,-2056.4562544148484,-147.44543809537495,-1134.8183284568786,-1837.651030822754,-943.334045791626
1000.0,1141.1745046956776,-2061.526864303411,-131.7466918058478,-1139.7680082511902,-1845.5557683410645,-929.721596244812
1010.0,1140.4215107753503,-2066.5205404247754,-116.04303078270657,-1144.6751742362976,-1853.391665878296,-916.0744672622681
1020.0,1139.6258867154056,-2071.437404684425,-100.33505821949208,-1149.5398153305055,-1861.1587095794678,-902.3933055114746
1030.0,1138.7878376632673,-2076.2775838996604,-84.62337276826601,-1154.3619238128663,-1868.856890991211,-888.6787550506592
1040.0,1137.9075703497813,-2081.041209690472,-68.90856851938355,-1159.141495262146,-1876.4862069702149,-874.9314572677612
1050.0,1136.9852930585919,-2085.7284184236055,-53.19123494317767,-1163.8785285301208,-1884.0466596527099,-861.1520508041382
1060.0,1136.0212155508232,-2090.3393511096165,-37.47195688228053,-1168.5730256958009,-1891.5382563476562,-847.3411715011597
1070.0,1135.0155490182465,-2094.8741533392554,-21.751314513542223,-1173.224992023468,-1898.9610094909667,-833.4994523391723
1080.0,1133.9685060550376,-2099.332975204266,-6.0298832815117205,-1177.8344359321595,-1906.3149365997315,-819.6275233459472
1090.0,1132.8803005793202,-2103.7159711973163,9.691766080639907,-1182.4013689308167,-1913.6000601654052,-805.7260115737915
1100.0,1131.7511478016638,-2108.0233001621314,25.413067616807762,-1186.925805606842,-1920.816407623291,-791.795541015625
1110.0,1130.5812641612877,-2112.2551251846444,41.1334601341536,-1191.4077635650635,-1927.9640112457275,-777.8367325744629
1120.0,1129.370867305639,-2116.4116135339214,56.852387273977165,-1195.8472633857727,-1935.042908126831,-763.8502039794922
1130.0,1128.1201759758683,-2120.49293655108,72.56929748807825,-1200.244328590393,-1942.0531400299071,-749.8365697479248
1140.0,1126.8294100580945,-2124.4992696196846,88.28364409755356,-1204.5989855957032,-1948.9947534332275,-735.7964411392212
1150.0,1125.4987904540533,-2128.4307920537503,103.99488529031805,-1208.9112636795044,-1955.8677993774413,-721.7304260940551
1160.0,1124.128539048996,-2132.2876870017126,119.702484119019,-1213.1811949234009,-1962.6723333892821,-707.6391292037964
1170.0,1122.7188787141376,-2136.0701414128916,135.40590856959577,-1217.4088141784669,-1969.4084154968261,-693.5231516418457
1180.0,1121.2700332066095,-2139.7783459354164,151.10463153641288,-1221.5941590309144,-1976.0761100921632,-679.3830911331177
1190.0,1119.7822271331186,-2143.4124948195367,166.79813082722248,-1225.737269744873,-1982.6754858551026,-665.2195419158935
1200.0,1118.2556859418983,-2146.972785894079,182.4858891979471,-1229.8381892395018,-1989.2066157531738,-651.0330947036744
1210.0,1116.6906358323822,-2150.45942042439,198.1673943694711,-1233.8969630241395,-1995.669576904297,-636.8243366088867
1220.0,1115.0873037490023,-2153.8726030874664,213.84213898019215,-1237.9136391716004,-2002.0644505462647,-622.5938511810302
1230.0,1113.445917312167,-2157.2125418639007,229.5096206758459,-1241.8882682724,-2008.3913219604492,-608.3422182769775
1240.0,1111.7667047704172,-2160.4794479786624,245.1693420315747,-1245.8209034004212,-2014.6502803802491,-594.0700141067505
1250.0,1110.04989499434,-2163.6735358107107,260.82081060944057,-1249.7116000480653,-2020.8414189605712,-579.7778111572266
1260.0,1108.2957174070593,-2166.795022847729,276.46353895033894,-1253.5604161186218,-2026.9648347015382,-565.4661781692505
1270.0,1106.504401971812,-2169.8441295935686,292.09704455625587,-1257.3674118537904,-2033.020628387451,-551.1356801300049
1280.0,1104.6761790916155,-2172.8210794669026,307.7208499136813,-1261.1326498069764,-2039.0089044647216,-536.7868781967163
1290.0,1102.8112796311493,-2175.7260987845734,323.33448245763606,-1264.85619480896,-2044.92977104187,-522.4203297348023
1300.0,1100.9099348723428,-2178.559416647391,338.937474618784,-1268.5381139030455,-2050.7833398132325,-508.0365882339478
1310.0,1098.9723764404234,-2181.321264895101,354.5293637813203,-1272.1784763374328,-2056.569725967407,-493.63620331573486
1320.0,1096.9988362947179,-2184.0118780064618,370.1096922793319,-1275.777353492737,-2062.2890481262207,-479.2197207107544
1330.0,1094.9895466841335,-2186.6314930507224,385.6780074211762,-1279.3348188591003,-2067.94142829895,-464.78768221282957
1340.0,1092.9447401021075,-2189.18034961603,401.23386143262024,-1282.8509479980469,-2073.5269917907713,-450.3406257019043
1350.0,1090.864649265815,-2191.65868973061,416.77681148770773,-1286.3258184928893,-2079.0458671569822,-435.8790850906372
1360.0,1088.749507077676,-2194.066757803243,432.3064196917411,-1289.7595099105836,-2084.498186141968,-421.40359031677247
1370.0,1086.5995465887759,-2196.4048005516247,447.82225305852313,-1293.152103767395,-2089.8840836029053,-406.9146673355103
1380.0,1084.4150009579828,-2198.6730669411413,463.32388350039344,-1296.5036834907532,-2095.2036974487305,-392.41283810424807
1390.0,1082.196103442771,-2200.8718081117486,478.8108878308851,-1299.8143343696595,-2100.45716859436,-377.8986205596924
1400.0,1079.9430873202473,-2203.0012773000367,494.2828477374697,-1303.08414352417,-2105.644640853882,-363.3725286026001
1410.0,1077.6561859078524,-2205.0617298167094,509.7393497668109,-1306.313199874878,-2110.7662609405515,-348.8350721130371
1420.0,1075.335632483812,-2207.053422918771,525.1799852993346,-1309.5015940818787,-2115.822178329468,-334.28675691986086
1430.0,1072.9816603141992,-2208.9766158258017,540.6043505806224,-1312.6494185371398,-2120.812545303345,-319.7280847854614
1440.0,1070.5945025741648,-2210.8315695783776,556.0120466347444,-1315.7567672920227,-2125.737516784668,-305.15955342864993
1450.0,1068.1743923040767,-2212.6185470237324,571.4026792809134,-1318.8237360610963,-2130.5972503051757,-290.58165649414065
1460.0,1065.721562457472,-2214.3378127423202,586.7758591388497,-1321.8504221420287,-2135.3919060058593,-275.9948835449219
1470.0,1063.2362458034515,-2215.989632994942,602.1312015681442,-1324.8369244155883,-2140.1216465148927,-261.39972007751464
1480.0,1060.7186749040184,-2217.5742756413415,617.4683266578891,-1327.7833432884215,-2144.7866368865966,-246.79664750671387
1490.0,1058.1690821361235,-2219.0920101091638,632.786859225956,-1330.689780658722,-2149.3870446014403,-232.1861431655884
1500.0,1055.5876996075083,-2220.5431073176956,648.0864287720556,-1333.5563398971558,-2153.9230394439696,-217.56868030548097
1510.0,1052.9747591527887,-2221.9278396171244,663.3666694648273,-1336.3831257858276,-2158.39479347229,-202.9447280960083
1520.0,1050.3304923253997,-2223.246480761474,678.627220130039,-1339.1702445106507,-2162.8024809875487,-188.31475162506104
1530.0,1047.655130368112,-2224.499305825801,693.8677242132483,-1341.917803604126,-2167.1462784576415,-173.6792119064331
1540.0,1044.9489041324757,-2225.6865911362006,709.0878297456558,-1344.6259119224549,-2171.4263644104003,-159.03856587219238
1550.0,1042.2120441417414,-2226.8086142688585,724.2871893468877,-1347.2946796188355,-2175.64291947937,-144.39326638793946
1560.0,1039.4447805189238,-2227.8656539452586,739.4654601772613,-1349.9242180862427,-2179.7961262817385,-129.7437622528076
1570.0,1036.6473429526366,-2228.8579900067048,754.6223039202521,-1352.5146399536134,-2183.8861693725585,-115.09049819946289
1580.0,1033.8199607097629,-2229.7859033530913,769.7573867626821,-1355.06605903244,-2187.9132352142333,-100.4339149017334
1590.0,1030.9628625988325,-2230.6496759075803,784.87037934285,-1357.578590297699,-2191.8775121154786,-85.77444900512695
1600.0,1028.0762769327273,-2231.449590530349,799.9609567486854,-1360.0523498420716,-2195.7791901550295,-71.11253309631347
1610.0,1025.1604315401212,-2232.1859310151176,815.0287984892245,-1362.4874548606872,-2199.6184611816407,-56.44859573364258
