sat1Name,LLO-0-0
sat1Smaj,3416.853
sat1Ecc,0.359146
sat1Inc,90.188
sat1RAAN,236.221
sat1ArgPer,291.43
sat1TrAnom,0
Time[EpSec],xF[km],yF[km],zF[km],xI[km],yI[km],zI[km]
0.0,935.1454546346712,-1138.773172150872,-1619.7227742139778,-439.2552059364319,-668.7019297943115,-2038.3070959472657
10.0,938.9639413024522,-1151.554213982674,-1608.463007590582,-448.2907880477905,-682.1719316558838,-2031.885937400818
20.0,942.73790429617,-1164.2816862254142,-1597.128132873381,-457.3054370651245,-695.6100792694092,-2025.3698992385864
30.0,946.4671735881817,-1176.9549963166983,-1585.7186849672148,-466.298733669281,-709.0157476043701,-2018.7592928619385
40.0,950.1515834904789,-1189.5735570385168,-1574.2352059180282,-475.270260684967,-722.3883148651123,-2012.0544387817383
50.0,953.7909727506369,-1202.1367866866797,-1562.6782447659643,-484.21960317611695,-735.7271627044678,-2005.2556665496827
60.0,957.38518452793,-1214.644109146427,-1551.0483574698178,-493.14634852600096,-749.0316762695312,-1998.3633146972657
70.0,960.9340664379375,-1227.094954006386,-1539.3461067825642,-502.05008651351926,-762.3012443389892,-1991.3777306594848
80.0,964.4374705625403,-1239.4887566720142,-1527.572062104339,-510.93040939712523,-775.5352594451904,-1984.2992706680297
90.0,967.8952535363638,-1251.8249584865923,-1515.726799401587,-519.7869119873047,-788.7331180267335,-1977.1282997283936
100.0,971.3072764655218,-1264.1030067951103,-1503.8109010937117,-528.6191917304993,-801.8942204437255,-1969.8651915054322
110.0,974.6734050663925,-1276.3223550881473,-1491.8249558741024,-537.4268487701416,-815.0179712219239,-1962.5103282318116
120.0,977.9935095754038,-1288.4824630635617,-1479.769558643352,-546.2094860458374,-828.1037790374755,-1955.064100631714
130.0,981.2674648599564,-1300.5827967587802,-1467.6453103491278,-554.9667093467713,-841.151056930542,-1947.526907836914
140.0,984.4951503943001,-1312.6228286239646,-1455.4528178696335,-563.6981273880004,-854.159222366333,-1939.8991572875977
150.0,987.6764502349839,-1324.6020375989583,-1443.1926938969063,-572.4033518943787,-867.1276972961426,-1932.1812646331787
160.0,990.8112531413344,-1336.519909254743,-1430.8655567708752,-581.0819976539611,-880.0559083862305,-1924.3736536483764
170.0,993.8994524558619,-1348.3759358097327,-1418.472030368118,-589.7336826019288,-892.9432869720459,-1916.4767560958862
180.0,996.9409462362058,-1360.169616274673,-1406.012743964208,-598.3580278701783,-905.7892692871094,-1908.4910116729736
190.0,999.9356371821331,-1371.9004565064442,-1393.4883321060956,-606.9546578788758,-918.5932964782714,-1900.4168678817748
200.0,1002.883432654801,-1383.567969271843,-1380.8994344576831,-615.523200378418,-931.3548147125244,-1892.2547799072265
210.0,1005.784244739221,-1395.171674373867,-1368.2466956496182,-624.0632865257263,-944.0732753448486,-1884.0052105255127
220.0,1008.6379901700716,-1406.7110986684486,-1355.5307651851876,-632.5745509414672,-956.7481349029541,-1875.6686299972534
230.0,1011.4445903892447,-1418.1857761668646,-1342.75229724812,-641.0566317710876,-969.378855255127,-1867.2455159301758
240.0,1014.2039715114377,-1429.595248101589,-1329.9119506062063,-649.5091707496643,-981.9649036560058,-1858.7363531951905
250.0,1016.9160643532111,-1440.9390629892468,-1317.0103884154832,-657.9318132591247,-994.5057528686524,-1850.1416337661742
260.0,1019.5808044174759,-1452.2167766880846,-1304.0482781185115,-666.3242083702088,-1007.0008812255859,-1841.4618566360473
270.0,1022.1981318663666,-1463.427952456364,-1291.0262912925834,-674.6860089187622,-1019.4497726898194,-1832.6975276794433
280.0,1024.7679915641677,-1474.5721610224848,-1277.9451034696403,-683.0168715438842,-1031.8519169921874,-1823.849159515381
290.0,1027.2903330411964,-1485.6489806324373,-1264.805394045869,-691.3164567451477,-1044.2068096618652,-1814.9172714233398
300.0,1029.7651104556633,-1496.6579970901366,-1251.6078460950491,-699.5844289398193,-1056.5139520874022,-1805.9023891677857
310.0,1032.1922826478412,-1507.5988038150904,-1238.3531462297863,-707.820456489563,-1068.772851638794,-1796.8050448989868
320.0,1034.5718130836028,-1518.4710018970572,-1225.0419844415092,-716.0242117729186,-1080.983021713257,-1787.6257770004272
330.0,1036.9036698601772,-1529.2742001314875,-1211.6750539918626,-724.195371219635,-1093.1439817962646,-1778.3651299972535
340.0,1039.1878256575683,-1540.0080150406934,-1198.2530512251403,-732.3336153526307,-1105.2552575073241,-1769.023654373169
350.0,1041.4242577965783,-1550.6720709481604,-1184.7766754235397,-740.4386288223267,-1117.3163807373046,-1759.6019064712525
360.0,1043.6129481103148,-1561.2659999695975,-1171.2466286880406,-748.5101004714966,-1129.3268895874023,-1750.1004483413697
370.0,1045.7538830437115,-1571.7894420897803,-1157.6636157625092,-756.5477233505248,-1141.286328552246,-1740.5198476257324
380.0,1047.8470535608142,-1582.2420451599323,-1144.028343883419,-764.5511947631836,-1153.1942485046386,-1730.8606773910521
390.0,1049.8924551093405,-1592.6234649187816,-1130.341522654591,-772.5202163047791,-1165.0502067260743,-1721.1235160064698
400.0,1051.8900876510525,-1602.9333650344954,-1116.603863878995,-780.4544938888549,-1176.8537670135497,-1711.3089470062255
410.0,1053.8399556220497,-1613.1714171285792,-1102.8160814334797,-788.3537377853394,-1188.604499710083,-1701.4175589675904
420.0,1055.7420678935098,-1623.3373007746993,-1088.978891067512,-796.2176626434326,-1200.3019817504883,-1691.4499453125
430.0,1057.5964377198309,-1633.430703507381,-1075.093010344728,-804.0459875297546,-1211.9457966461182,-1681.4067042388915
440.0,1059.403082774071,-1643.451320866605,-1061.1591584138098,-811.8384359512329,-1223.5355346221925,-1671.2884385299683
450.0,1061.1620250594806,-1653.3988563677865,-1047.178055912716,-819.5947358741761,-1235.0707925720214,-1661.095755432129
460.0,1062.873290926671,-1663.273021549707,-1033.1504247862097,-827.314619758606,-1246.5511741638184,-1650.8292665023803
470.0,1064.5369109826145,-1673.0735359290597,-1019.0769881959866,-834.9978245735168,-1257.9762897796631,-1640.489587486267
480.0,1066.1529201106807,-1682.8001270285072,-1004.9584703245811,-842.6440918083191,-1269.3457566223144,-1630.0773381500244
490.0,1067.7213574287455,-1692.4525304025067,-990.7955962428956,-850.2531675186157,-1280.6591987457275,-1619.593142150879
500.0,1069.2422662121223,-1702.030489557106,-976.5890918070268,-857.8248023033142,-1291.9162469940186,-1609.0376268997193
510.0,1070.7156939131353,-1711.5337560262744,-962.3396834765491,-865.3587513618469,-1303.1165391235352,-1598.4114234161377
520.0,1072.141692078369,-1720.9620892995079,-948.0480981772329,-872.8547744750977,-1314.2597197570801,-1587.7151661605835
530.0,1073.520316352894,-1730.3152568544874,-933.7150631925988,-880.3126360321045,-1325.3454404449462,-1576.9494929428101
540.0,1074.8516263816261,-1739.5930340957952,-919.341305997876,-887.7321050376892,-1336.3733596191407,-1566.1150447235107
550.0,1076.1356858390886,-1748.7952043883329,-904.927554133263,-895.1129551200867,-1347.3431426849365,-1555.2124655151367
560.0,1077.3725623206465,-1757.9215589935416,-890.4745350917536,-902.4549645423889,-1358.25446194458,-1544.2424022293092
570.0,1078.5623273587203,-1766.9718970820522,-875.9829761361468,-909.7579162025452,-1369.1069966888429,-1533.2055045166016
580.0,1079.7050563280748,-1775.946025674086,-861.4536042294154,-917.0215976333618,-1379.9004331207275,-1522.102424659729
590.0,1080.800828457505,-1784.8437596617093,-846.8871458442718,-924.245801021576,-1390.6344644470214,-1510.9338174057007
600.0,1081.849726727748,-1793.6649217125396,-832.2843268717071,-931.4303231811523,-1401.3087907867432,-1499.7003398284912
610.0,1082.8518378637164,-1802.4093423074514,-817.645872498279,-938.574965587616,-1411.9231192321777,-1488.402651222229
620.0,1083.807252280178,-1811.0768596678615,-802.9725070433368,-945.6795343475342,-1422.477163833618,-1477.0414129180908
630.0,1084.7160640329193,-1819.6673197185394,-788.2649538860416,-952.7438401985169,-1432.9706455688477,-1465.6172881927491
640.0,1085.5783707517871,-1828.180576062436,-773.523935302939,-959.7676985206604,-1443.4032923431396,-1454.1309420928956
650.0,1086.3942736379456,-1836.6164899547273,-758.7501723509563,-966.7509293174744,-1453.7748390197753,-1442.5830413208007
660.0,1087.1638773594207,-1844.9749302190899,-743.9443847826718,-973.6933572044372,-1464.0850273284912,-1430.9742541046141
670.0,1087.8872900665797,-1853.2557732523458,-729.1072908832557,-980.5948114089966,-1474.3336059417725,-1419.3052500534059
680.0,1088.564623291048,-1861.4589029521826,-714.2396073871238,-987.4551257514954,-1484.5203303985595,-1407.5767000350952
690.0,1089.1959918821221,-1869.584210657867,-699.3420493683965,-994.2741386489868,-1494.6449630584716,-1395.7892760391235
700.0,1089.781514037623,-1877.631595150981,-684.4153300938834,-1001.051693080902,-1504.7072731933595,-1383.9436510543824
710.0,1090.3213111472019,-1885.6009625231559,-669.4601609462128,-1007.7876365814209,-1514.707036819458,-1372.040498916626
720.0,1090.8155078514071,-1893.4922262248597,-654.4772513139844,-1014.481821231842,-1524.644036819458,-1360.0804942398072
730.0,1091.264231880317,-1901.30530692572,-639.4673084670098,-1021.13410364151,-1534.518062789917,-1348.0643122177123
740.0,1091.6676140669563,-1909.0401324903494,-624.4310374747257,-1027.744344921112,-1544.3289110717774,-1335.9926285476683
750.0,1092.0257883040617,-1916.6966379461114,-609.3691410936858,-1034.3124106674195,-1554.0763847503663,-1323.8661193084718
760.0,1092.3388914461875,-1924.2747653814408,-594.282319654712,-1040.8381709480286,-1563.7602935638429,-1311.6854608001709
770.0,1092.6070632933272,-1931.7744639090788,-579.1712710001494,-1047.3215002670288,-1573.3804539031983,-1299.4513294754029
780.0,1092.8304465071772,-1939.1956896073689,-564.0366903532387,-1053.7622775650025,-1582.9366887664794,-1287.1644017791748
790.0,1093.0091865719735,-1946.5384054342355,-548.8792702520692,-1060.160386165619,-1592.4288277130127,-1274.825354057312
800.0,1093.1434317632823,-1953.8025811973341,-533.6997004438954,-1066.5157137718202,-1601.8567068634034,-1262.4348624420165
810.0,1093.233333069792,-1960.9881934673929,-518.4986677750643,-1072.8281524353026,-1611.220168838501,-1249.993602706909
820.0,1093.279044123385,-1968.0952255028285,-503.276856157281,-1079.0975985260009,-1620.5190626831054,-1237.5022501983642
830.0,1093.280721179739,-1975.1236672129617,-488.03494644231756,-1085.3239527130127,-1629.7532438812257,-1224.9614797058105
840.0,1093.238523051104,-1982.0735150547023,-472.77361634629244,-1091.5071199188233,-1638.922574279785,-1212.3719653472901
850.0,1093.15261104682,-1988.9447719890834,-457.49354036282097,-1097.6470093078613,-1648.0269220581054,-1199.7343804626464
860.0,1093.0231489254813,-1995.737447397447,-442.19538970952374,-1103.743534248352,-1657.0661616668701,-1187.049397529602
870.0,1092.8503028542311,-2002.4515570199262,-426.8798322146895,-1109.7966122779847,-1666.0401738128662,-1174.3176880340577
880.0,1092.634241301937,-2009.0871228574783,-411.5475322938587,-1115.8061650772095,-1674.948845336914,-1161.5399223937989
890.0,1092.375135068055,-2015.6441731471361,-396.19915081437443,-1121.7721184387208,-1683.7920692749024,-1148.7167698364258
900.0,1092.0731571471567,-2022.122742219167,-380.8353450757973,-1127.694402217865,-1692.5697446899414,-1135.8488983078003
910.0,1091.7284827383032,-2028.5228704966612,-365.4567687150467,-1133.5729503250122,-1701.2817767181396,-1122.9369743881225
920.0,1091.3412891587643,-2034.8446043713554,-350.06407164960376,-1139.4077006683349,-1709.928076461792,-1109.9816631851197
930.0,1090.911755795352,-2041.0879961363362,-334.65790001811797,-1145.1985951194763,-1718.5085609436035,-1096.9836282501221
940.0,1090.4400640451893,-2047.253103910348,-319.23889610536213,-1150.9455794944763,-1727.0231530456542,-1083.9435314712525
950.0,1089.9263973055943,-2053.339991589369,-303.8076982869334,-1156.648603500366,-1735.4717815093993,-1070.8620330123902
960.0,1089.3709408386214,-2059.3487287086014,-288.3649409951731,-1162.3076207046508,-1743.8543807678222,-1057.7397912063598
970.0,1088.7738818171006,-2065.2793904306304,-272.9112546133908,-1167.9225884933471,-1752.1708910217285,-1044.5774624710084
980.0,1088.1354091871174,-2071.1320574173615,-257.44726546293145,-1173.4934680404663,-1760.4212580718995,-1031.3757012252809
990.0,1087.455713666379,-2076.9068157632787,-241.97359575370535,-1179.0202242546081,-1768.605433303833,-1018.135159828186
1000.0,1086.7349876968337,-2082.603756954717,-226.4908634916793,-1184.5028257598876,-1776.7233736724854,-1004.8564884719849
1010.0,1085.9734253318236,-2088.2229777195025,-210.99968248061208,-1189.9412448387145,-1784.7750415344237,-991.5403351135254
1020.0,1085.171222285134,-2093.7645800136506,-195.50066225022485,-1195.3354573936463,-1792.7604047088623,-978.1873454208373
1030.0,1084.328575774611,-2099.2286708915285,-179.99440801505955,-1200.6854429168702,-1800.6794363098145,-964.7981626586914
1040.0,1083.4456845481955,-2104.615362467952,-164.48152064141735,-1205.9911844444275,-1808.5321147613524,-951.373427658081
1050.0,1082.5227487913596,-2109.9247718009515,-148.96259658327105,-1211.252668510437,-1816.318423690796,-937.9137787017822
1060.0,1081.559970138255,-2115.1570208431363,-133.43822788199316,-1216.4698851013184,-1824.038351913452,-924.4198515167236
1070.0,1080.5575515189284,-2120.31223633784,-117.90900209923333,-1221.6428276367187,-1831.691893295288,-910.8922791442872
1080.0,1079.515697223125,-2125.390549749417,-102.37550229147472,-1226.7714928970338,-1839.2790467681884,-897.3316919174194
1090.0,1078.4346127541348,-2130.39209717331,-86.83830698522006,-1231.8558810043335,-1846.7998161926268,-883.738717376709
1100.0,1077.3145048576757,-2135.3170192708194,-71.29799013588543,-1236.8959953651429,-1854.2542103576661,-870.1139802246093
1110.0,1076.1555814539734,-2140.165461192478,-55.755121094068976,-1241.8918426399232,-1861.6422429046631,-856.4581022567749
1120.0,1074.9580515487219,-2144.9375724641895,-40.210264603845545,-1246.8434326896668,-1868.9639322052003,-842.7717023086548
1130.0,1073.7221252520653,-2149.63350694427,-24.663980748552827,-1251.750778530121,-1876.2193013763429,-829.0553962020874
1140.0,1072.4480136663437,-2154.2534227198225,-9.116824940165854,-1256.613896308899,-1883.4083781433105,-815.3097966766358
1150.0,1071.1359289210232,-2158.7974820517284,6.430652106154943,-1261.4328052330018,-1890.5311948547364,-801.5355133666992
1160.0,1069.786084039563,-2163.2658512690145,21.977904391213205,-1266.207527557373,-1897.5877883300782,-787.7331527175903
1170.0,1068.3986929587106,-2167.658700693293,37.52439063838089,-1270.9380885047913,-1904.5781998443604,-773.9033179702759
1180.0,1066.9739704820547,-2171.9762046041883,53.06957435240119,-1275.6245162620544,-1911.5024750976563,-760.046609085083
1190.0,1065.5121321765093,-2176.2185410750667,68.61292376904701,-1280.266841899872,-1918.3606640319824,-746.163622718811
1200.0,1064.0133944030235,-2180.385891977034,84.15391193440568,-1284.8650993537904,-1925.152820892334,-732.2549521636963
1210.0,1062.4779742325666,-2184.4784428600183,99.69201667968532,-1289.4193253746032,-1931.8790040893555,-718.3211873168946
1220.0,1060.90608944448,-2188.4963828974273,115.22672064248228,-1293.929559474945,-1938.539276184082,-704.3629146499634
1230.0,1059.2979584204718,-2192.4399047750408,130.7575112772477,-1298.3958438987731,-1945.1337037506103,-690.3807171401977
1240.0,1057.653800162147,-2196.3092046480315,146.2838808612188,-1302.8182235679626,-1951.6623573760987,-676.3751742630005
1250.0,1055.9738342138655,-2200.10448204796,161.8053265024115,-1307.1967460517883,-1958.125311553955,-662.3468619384765
1260.0,1054.258280667501,-2203.8259398248642,177.32135015376366,-1311.5314615097045,-1964.522644668579,-648.2963525085449
1270.0,1052.507360074504,-2207.4737840524813,192.83145859407645,-1315.822422657013,-1970.854438873291,-634.2242147064209
1280.0,1050.7212934435029,-2211.048223952165,208.3351634574856,-1320.0696847076415,-1977.1207800598145,-620.1310136108399
1290.0,1048.9003021706803,-2214.5494718451478,223.83198122529396,-1324.2733053627014,-1983.3217577819823,-606.0173106231689
1300.0,1047.0446080435072,-2217.9777430432205,239.32143320790655,-1328.4333447227477,-1989.457465194702,-591.8836634597778
1310.0,1045.1544331731004,-2221.3332558235525,254.8030455839521,-1332.5498652954102,-1995.5279990081788,-577.7306260910034
1320.0,1043.229999978381,-2224.616231303041,270.27634936345703,-1336.6229319038391,-2001.5334593963623,-563.5587487411499
1330.0,1041.2715311100128,-2227.8268933976005,285.7408803869643,-1340.6526116867065,-2007.4739499206544,-549.3685778579712
1340.0,1039.2792494813316,-2230.965468755771,301.196179345166,-1344.6389740257264,-2013.3495775299073,-535.1606560897827
1350.0,1037.2533781729294,-2234.032186661798,316.64179174713996,-1348.5820905189514,-2019.1604524230956,-520.9355222625733
1360.0,1035.194140458119,-2237.027279006381,332.0772679322601,-1352.4820349349975,-2024.9066880645753,-506.6937113723755
1370.0,1033.101759720882,-2239.9509801863833,347.50216305818935,-1356.3388831787108,-2030.5884010620118,-492.43575454711913
1380.0,1030.9764594176895,-2242.803527023203,362.9160370705972,-1360.1527132339477,-2036.2057110900878,-478.16217904663085
1390.0,1028.8184631023425,-2245.5851587420157,378.31845472964613,-1363.923605140686,-2041.7587409057617,-463.8735082397461
1400.0,1026.627994347353,-2248.2961168718157,393.708985569466,-1367.6516409454346,-2047.2476162261962,-449.5702615966797
1410.0,1024.405276722348,-2250.936645177785,409.0872039079455,-1371.3369046554565,-2052.6724656829833,-435.2529546585083
1420.0,1022.1505337904097,-2253.5069896260015,424.45268882756596,-1374.9794822158813,-2058.0334207916258,-420.9220990447998
1430.0,1019.8639890435018,-2256.0073982853055,439.80502414053046,-1378.579461452484,-2063.3306158447267,-406.5782024459839
1440.0,1017.5458658830127,-2258.4381212656294,455.143798398794,-1382.1369320373535,-2068.564187866211,-392.22176859283445
1450.0,1015.1963875874062,-2260.799410680147,470.468604876136,-1385.6519854660035,-2073.7342765655517,-377.8532972564697
1460.0,1012.8157773322368,-2263.0915205637125,485.7790415620495,-1389.124714984894,-2078.841024307251,-363.47328424072265
1470.0,1010.4042580964433,-2265.314706813374,501.07471110094406,-1392.5552155838013,-2083.8845759887695,-349.0822213973999
1480.0,1007.9620526624642,-2267.469227133828,516.3552208206232,-1395.9435839500427,-2088.8650790252686,-334.6805965881348
1490.0,1005.4893836007839,-2269.555340965647,531.620182700922,-1399.2899184188843,-2093.7826832885744,-320.2688936920166
1500.0,1002.9864732382674,-2271.5733094370794,546.869213342903,-1402.5943189506531,-2098.6375410461424,-305.84759261322023
1510.0,1000.4535436166777,-2273.5233952929148,562.1019339657064,-1405.8568870811462,-2103.4298069000242,-291.41716925811767
1520.0,997.8908164884784,-2275.4058628573102,577.3179703604882,-1409.0777259025574,-2108.1596377410888,-276.9780955657959
1530.0,995.2985133034383,-2277.220977950897,592.5169528998096,-1412.2569399986266,-2112.827192703247,-262.5308394775391
1540.0,992.6768551401323,-2278.969007859725,607.698516508637,-1415.3946354484558,-2117.432633087158,-248.07586493682862
1550.0,990.026062744492,-2280.6502212573187,622.862300615761,-1418.490919746399,-2121.976122329712,-233.61363192749025
1560.0,987.3463564514143,-2282.264888162031,638.0079491599726,-1421.545901802063,-2126.4578259277346,-219.14459643554687
1570.0,984.6379561916752,-2283.813279883528,653.1351105632838,-1424.5596918907165,-2130.8779114074705,-204.66921046447754
1580.0,981.9010814729542,-2285.295668964744,668.2434376928304,-1427.5324016189575,-2135.2365482635496,-190.18792205047606
1590.0,979.1359513395231,-2286.712329129992,683.3325878369673,-1430.4641438941956,-2139.533907897949,-175.70117526245116
1600.0,976.3427843907017,-2288.0635352383943,698.4022226985653,-1433.3550328826905,-2143.7701636047364,-161.20941020202636
1610.0,973.5217987049283,-2289.3495632170334,713.4520083467623,-1436.2051839866638,-2147.9454904632566,-146.71306301116942
