sat1Name,LLO-1-1
sat1Smaj,3416.853
sat1Ecc,0.359146
sat1Inc,90.188
sat1RAAN,236.721
sat1ArgPer,291.93
sat1TrAnom,0
Time[EpSec],xF[km],yF[km],zF[km],xI[km],yI[km],zI[km]
0.0,945.5805019509761,-1149.5270611404221,-1606.0100480070037,-443.1659470252991,-687.3419340820312,-2031.2479497375489
10.0,949.4570786329699,-1162.1662265605326,-1594.611098442378,-452.0529401702881,-700.8426560821533,-2024.685493675232
20.0,953.2886492379877,-1174.751329952154,-1583.1376876030606,-460.91882455062864,-714.3106520080566,-2018.0284942245482
30.0,957.0750410917383,-1187.2817853891795,-1571.5903568227736,-469.7631877975464,-727.7452954711914,-2011.2772693405152
40.0,960.8160859680348,-1199.757012391334,-1559.96965449056,-478.58561971664426,-741.1459634857177,-2004.4321460647584
50.0,964.5116200326995,-1212.1764359688107,-1548.2761359518543,-487.3857123565674,-754.5120364837646,-1997.4934604263306
60.0,968.1614840038716,-1224.5394868244084,-1536.510363373644,-496.1630601005554,-767.8428985900879,-1990.4615574111938
70.0,971.7655230304823,-1236.8456013653504,-1524.6729056674176,-504.9172597427368,-781.1379375610352,-1983.3367908554078
80.0,975.3235868402423,-1249.0942218839507,-1512.7643383124964,-513.6479105567932,-794.3965450592041,-1976.1195233688354
90.0,978.8355297145995,-1261.2847966277072,-1500.7852433002483,-522.3546143836975,-807.61811668396,-1968.8101262893676
100.0,982.3012104853009,-1273.4167798927624,-1488.736208979102,-531.0369757003784,-820.802052078247,-1961.408979560852
110.0,985.7204926221619,-1285.4896321595154,-1476.6178299195967,-539.6946016998291,-833.9477551116944,-1953.9164716644286
120.0,989.0932441923085,-1297.502820143897,-1464.4307068167661,-548.327102355957,-847.0546339111328,-1946.3329995269776
130.0,992.419337943298,-1309.4558169531504,-1452.1754463421587,-556.934090511322,-860.12210105896,-1938.6589684448243
140.0,995.6986512349832,-1321.348102095389,-1439.8526610159493,-565.5151819229126,-873.1495735931396,-1930.894791946411
150.0,998.9310661324174,-1333.1791616521477,-1427.462969093896,-574.0699953651429,-886.1364732055664,-1923.0408917541504
160.0,1002.1164693951838,-1344.9484883250502,-1415.0069944104466,-582.598152671814,-899.0822263183594,-1915.0976976470947
170.0,1005.2547524781603,-1356.6555815265192,-1402.485366250402,-591.0992788200379,-911.986264175415,-1907.0656473617553
180.0,1008.3458115310599,-1368.299947442924,-1389.898719234175,-599.5730019798278,-924.8480229187012,-1898.9451865005494
190.0,1011.389547452665,-1379.8810991619216,-1377.2476931461827,-608.0189536018372,-937.6669437561035,-1890.7367684173585
200.0,1014.3858658502368,-1391.398556704438,-1364.5329328164823,-616.4367684631347,-950.4424729919433,-1882.4408541030884
210.0,1017.3346770863317,-1402.8518471282077,-1351.755087989486,-624.8260847320556,-963.1740621643066,-1874.0579121017456
220.0,1020.235896252067,-1414.2405045899009,-1338.9148131452735,-633.1865440406799,-975.8611681213379,-1865.5884183502196
230.0,1023.0894431844065,-1425.5640704071109,-1326.0127674131334,-641.5177915306091,-988.5032530975342,-1857.0328561172485
240.0,1025.8952424415147,-1436.822093128044,-1313.0496143801645,-649.8194759178161,-1001.0997848052979,-1848.3917158355712
250.0,1028.6532233602113,-1448.0141286094208,-1300.026021973107,-658.091249546051,-1013.6502365570068,-1839.6654950256348
260.0,1031.3633199963642,-1459.139740063039,-1286.9426622916008,-666.3327684440612,-1026.154087310791,-1830.8546981353759
270.0,1034.0254711322582,-1470.198498118481,-1273.8002114932074,-674.5436923866272,-1038.610821746826,-1821.9598364486694
280.0,1036.639620305082,-1481.1899808842381,-1260.5993496120916,-682.7236849327087,-1051.0199303894044,-1812.9814279403686
290.0,1039.2057157536008,-1492.1137739796118,-1247.3407604533622,-690.8724134788513,-1063.3809096221923,-1803.9199971694945
300.0,1041.7237104189,-1502.9694706036757,-1234.025131402988,-698.9895493202209,-1075.693261795044,-1794.7760751190185
310.0,1044.193562001334,-1513.75667159949,-1220.653153303058,-707.0747676811218,-1087.9564953460692,-1785.5501991119386
320.0,1046.615232818274,-1524.4749854377253,-1207.2255203046077,-715.1277477722168,-1100.1701247406006,-1776.2429126281738
330.0,1048.9886899310177,-1535.1240283354084,-1193.7429297147896,-723.148172832489,-1112.3336706848145,-1766.8547652282714
340.0,1051.313905007515,-1545.70342422723,-1180.2060818428895,-731.1357301750184,-1124.4466600646972,-1757.3863123626709
350.0,1053.5908544225574,-1556.2128048522113,-1166.6156798383722,-739.0901112098694,-1136.5086261291503,-1747.838115272522
360.0,1055.8195191147818,-1566.651809736691,-1152.972429611601,-747.0110115089417,-1148.5191083984375,-1738.2107408676147
370.0,1057.9998846963792,-1577.020086279831,-1139.2770395698933,-754.8981308250427,-1160.4776528930663,-1728.5047615356445
380.0,1060.1319413148194,-1587.3172897301067,-1125.5302205866844,-762.7511731414795,-1172.3838120269775,-1718.720755065918
390.0,1062.2156837143145,-1597.543083241405,-1111.73268576085,-770.5698466911316,-1184.2371447753906,-1708.8593044586182
400.0,1064.2511111854571,-1607.6971378798132,-1097.8851503171907,-778.3538639945984,-1196.0372166748048,-1698.920997817993
410.0,1066.2382275142963,-1617.7791326490387,-1083.988331459851,-786.1029419059753,-1207.7835998535156,-1688.9064282073975
420.0,1068.1770409939738,-1627.7887544994135,-1070.0429482091843,-793.8168016166687,-1219.47587310791,-1678.8161935043336
430.0,1070.0675643830602,-1637.7256983452446,-1056.0497212552546,-801.4951686973571,-1231.1136219329835,-1668.650896255493
440.0,1071.9098148867133,-1647.589667090665,-1042.0093727928206,-809.1377731323242,-1242.696438583374,-1658.41114352417
450.0,1073.7038140874852,-1657.3803715852143,-1027.9226264471993,-816.7443493156433,-1254.2239220275878,-1648.0975467910766
460.0,1075.4495879625047,-1667.0975306975884,-1013.7902070444196,-824.3146361083984,-1265.6956780853272,-1637.7107217636108
470.0,1077.1471668330753,-1676.7408712638844,-999.6128405173325,-831.84837682724,-1277.1113193969727,-1627.2512882614135
480.0,1078.7965853308074,-1686.310128127657,-985.3912537332147,-839.3453192939759,-1288.4704654846191,-1616.7198700561523
490.0,1080.3978823402501,-1695.8050440894274,-971.1261743928242,-846.8052158241272,-1299.7727427215575,-1606.1170947494506
500.0,1081.9511010023514,-1705.2253699419455,-956.818330839643,-854.2278232612609,-1311.017784423828,-1595.4435936050415
510.0,1083.456288667121,-1714.5708644570439,-942.468451946737,-861.6129029922486,-1322.2052308502198,-1584.7000014266969
520.0,1084.9134968244036,-1723.841294340242,-928.0772670015401,-868.960220943451,-1333.334729171753,-1573.8869564208985
530.0,1086.322781115526,-1733.0364342655066,-913.6455054953415,-876.2695476074218,-1344.4059335784912,-1563.005100013733
540.0,1087.6842012340462,-1742.1560668119362,-899.1738970734932,-883.5406580467225,-1355.4185051879883,-1552.0550767593384
550.0,1088.9978209580665,-1751.1999824969664,-884.6631713335775,-890.7733319015503,-1366.3721121673584,-1541.037534172058
560.0,1090.263708029444,-1760.1679797051918,-870.1140577190453,-897.967353401184,-1377.2664296417236,-1529.9531225738526
570.0,1091.4819341687241,-1769.059864688279,-855.5272853974656,-905.122511352539,-1388.101139755249,-1518.8024949874878
580.0,1092.652575019378,-1777.8754515588782,-840.9035830990142,-912.2385991668701,-1398.8759316864014,-1507.5863069686889
590.0,1093.7757100713059,-1786.6145622152062,-826.2436790202739,-919.3154148406983,-1409.5905015869141,-1496.3052164764404
600.0,1094.8514226661473,-1795.27702635477,-811.5483006538769,-926.3527609672547,-1420.2445526580811,-1484.959883720398
610.0,1095.879799911418,-1803.8626814240838,-796.8181747130534,-933.3504447364808,-1430.8377950897216,-1473.550971054077
620.0,1096.8609326449503,-1812.3713725801933,-782.0540269709247,-940.308277923584,-1441.3699460754394,-1462.0791428070067
630.0,1097.794915402587,-1820.802952658283,-767.2565821477616,-947.2260768852234,-1451.8407298126222,-1450.5450651626586
640.0,1098.681846350769,-1829.1572821426164,-752.4265637826616,-954.1036625671387,-1462.2498774871826,-1438.9494060134887
650.0,1099.5218272617515,-1837.4342291226167,-737.5646941282605,-960.9408604812622,-1472.5971272735596,-1427.2928348464966
660.0,1100.314963424859,-1845.6336692309346,-722.6716940060007,-967.737500705719,-1482.8822242889405,-1415.576022567749
670.0,1101.0613636313906,-1853.7554856133106,-707.7482827359414,-974.4934178695679,-1493.1049205932618,-1403.7996414260865
680.0,1101.7611401068775,-1861.799568897723,-692.7951779745664,-981.2084511528016,-1503.264975189209,-1391.9643648376464
690.0,1102.4144084828538,-1869.7658171214603,-677.8130956212203,-987.8824442596435,-1513.3621539916992,-1380.0708672714234
700.0,1103.0212877197216,-1877.6541356973976,-662.8027497241221,-994.5152454109192,-1523.3962297973633,-1368.1198241348266
710.0,1103.5819000531912,-1885.4644373396452,-647.7648523300649,-1001.1067073326111,-1533.3669822540282,-1356.1119115982056
720.0,1104.0963709779558,-1893.196642057777,-632.7001134295529,-1007.6566872406006,-1543.2741978759766,-1344.047806541443
730.0,1104.564829142532,-1900.8506770335975,-617.609240809093,-1014.1650468063355,-1553.1176699523926,-1331.928186355591
740.0,1104.9874063681923,-1908.4264766359236,-602.4929399502811,-1020.6316521606445,-1562.8971986083984,-1319.7537288589479
750.0,1105.3642374962774,-1915.9239823083951,-587.3519139898099,-1027.0563738670348,-1572.6125906524658,-1307.5251121902465
760.0,1105.695460430345,-1923.3431425308802,-572.1868635359805,-1033.4390868873595,-1582.26365965271,-1295.243014640808
770.0,1105.9812160319113,-1930.683912768406,-556.9984866061144,-1039.7796705818175,-1591.8502258605956,-1282.908114555359
780.0,1106.221648094864,-1937.9462554008937,-541.7874785615062,-1046.0780086669922,-1601.3721161804199,-1270.5210902481078
790.0,1106.4169032361335,-1945.130139641331,-526.5545319816152,-1052.3339892044066,-1610.8291640930177,-1258.0826198349
800.0,1106.567130921886,-1952.2355415103614,-511.3003365626456,-1058.5475045700073,-1620.221209701538,-1245.5933811416626
810.0,1106.672483357558,-1959.2624437269271,-496.02557907312945,-1064.7184514198302,-1629.548099609375,-1233.0540516052247
820.0,1106.7331154380267,-1966.2108356789656,-480.7309432199546,-1070.8467306900025,-1638.809686920166,-1220.465308128357
830.0,1106.7491846994105,-1973.0807133169328,-465.41710961534596,-1076.9322475318909,-1648.005831161499,-1207.8278270111084
840.0,1106.720851299847,-1979.872079132526,-450.0847556242079,-1082.9749113121034,-1657.1363983154297,-1195.1422837982177
850.0,1106.6482778922805,-1986.5849420436723,-434.7345553666813,-1088.9746355743407,-1666.2012606658936,-1182.4093532180786
860.0,1106.5316296417093,-1993.2193173489225,-419.36717956752085,-1094.9313380012513,-1675.2002968444824,-1169.6297090377807
870.0,1106.3710741133502,-1999.7752266374207,-403.98329553964794,-1100.8449403915406,-1684.1333917083741,-1156.8040239944457
880.0,1106.166781285806,-2006.2526977587895,-388.58356705451746,-1106.7153686294555,-1693.0004363861085,-1143.9329696731568
890.0,1105.9189233931127,-2012.6517646667753,-373.16865433408725,-1112.5425526390077,-1701.8013280792236,-1131.0172164154053
900.0,1105.6276750092306,-2018.9724674512893,-357.7392139071171,-1118.3264263687133,-1710.5359701995849,-1118.0574332199096
910.0,1105.2932128463783,-2025.214852159043,-342.29589861161344,-1124.0669277420043,-1719.2042721252442,-1105.0542876434326
920.0,1104.9157158016865,-2031.3789707870394,-326.8393574816901,-1129.7639986305237,-1727.8061492767333,-1092.0084457092285
930.0,1104.4953649033116,-2037.464881208036,-311.37023570817337,-1135.417584815979,-1736.3415230560304,-1078.920571838379
940.0,1104.0323431795855,-2043.4726470276926,-295.8891745706553,-1141.0276359519958,-1744.8103206939697,-1065.7913287124634
950.0,1103.5268356656418,-2049.402337573754,-280.39681138418393,-1146.5941055335998,-1753.2124752807617,-1052.6213772277831
960.0,1102.9790293625938,-2055.254027798297,-264.8937794318324,-1152.1169508514404,-1761.547925704956,-1039.411376396179
970.0,1102.3891131404691,-2061.027798191212,-249.38070790857054,-1157.5961329612733,-1769.8166165618898,-1026.1619832458496
980.0,1101.7572777025111,-2066.7237346974516,-233.8582218961377,-1163.0316166381836,-1778.0184980926513,-1012.8738527679443
990.0,1101.083715536236,-2072.3419286554426,-218.3269422623364,-1168.4233703536988,-1786.1535261535644,-999.5476377944947
1000.0,1100.3686208805457,-2077.8824767138494,-202.7874856645039,-1173.7713662109375,-1794.2216621551513,-986.1839889755249
1010.0,1099.612189633661,-2083.345480737011,-187.2404644649476,-1179.075579925537,-1802.222872970581,-972.783554649353
1020.0,1098.8146193288528,-2088.731047733666,-171.68648671417986,-1184.335990776062,-1810.1571308898926,-959.3469808044433
1030.0,1097.976109064633,-2094.0392897804354,-156.12615607610718,-1189.5525815734863,-1818.0244135589598,-945.8749109725952
1040.0,1097.0968594911565,-2099.270323946394,-140.56007182552898,-1194.7253386039733,-1825.824703933716,-932.3679862060546
1050.0,1096.177072729201,-2104.4242722050603,-124.98882876496471,-1199.8542516021728,-1833.5579902038573,-918.8268449554444
1060.0,1095.2169523040363,-2109.5012613332533,-109.41301723820902,-1204.9393137016295,-1841.224265686035,-905.2521230392456
1070.0,1094.2167031309243,-2114.50142287974,-93.83322304053628,-1209.9805214042663,-1848.8235288391113,-891.6444535522461
1080.0,1093.1765314698187,-2119.424893045978,-78.25002742537112,-1214.9778745231629,-1856.3557831573487,-878.0044668273925
1090.0,1092.096644825461,-2124.2718126022846,-62.664007062421994,-1219.9313761444091,-1863.8210370788574,-864.3327903518676
1100.0,1090.9772519808944,-2129.0423268526447,-47.075734004381815,-1224.8410325927734,-1871.2193040008544,-850.6300487365722
1110.0,1089.81856286762,-2133.73658549669,-31.48577564742544,-1229.7068533821107,-1878.5506021270753,-836.896863609314
1120.0,1088.6207885529186,-2138.354742586319,-15.894694736508187,-1234.5288511810302,-1885.814954437256,-823.1338536071777
1130.0,1087.3841412169093,-2142.896956442562,-0.303049293588032,-1239.3070417556762,-1893.0123886566162,-809.3416342849731
1140.0,1086.108834075086,-2147.363389561282,15.288607349217404,-1244.0414439353942,-1900.142937133789,-795.5208180999756
1150.0,1084.7950813375146,-2151.754208550154,30.879726621814886,-1248.732079574585,-1907.2066368103028,-781.6720143203736
1160.0,1083.4430981531104,-2156.0695840229178,46.46976469544414,-1253.3789734992981,-1914.2035291137695,-767.7958290023804
1170.0,1082.0531006188019,-2160.3096905658276,62.05818253705511,-1257.9821534690857,-1921.1336599731446,-753.8928649368286
1180.0,1080.6253056502746,-2164.474706612577,77.64444589387928,-1262.541650138855,-1927.997079650879,-739.9637215957641
1190.0,1079.1599310178058,-2168.5648143919916,93.22802533329755,-1267.057497001648,-1934.7938427581787,-726.0089950942993
1200.0,1077.6571952435943,-2172.580199837158,108.80839623797405,-1271.5297303581237,-1941.5240081329346,-712.0292781448364
1210.0,1076.1173176142604,-2176.5210525304014,124.38503882022877,-1275.9583892707824,-1948.187638824463,-698.0251600341796
1220.0,1074.5405180887396,-2180.3875656001574,139.95743815087062,-1280.3435155181885,-1954.7848019866944,-683.9972265472412
1230.0,1072.9270172915672,-2184.1799356545325,155.5250841478362,-1284.6851535491944,-1961.3155688323975,-669.9460599594116
1240.0,1071.2770364266373,-2187.898362696185,171.08747157000565,-1288.9833504486085,-1967.7800145263673,-655.8722389984131
1250.0,1069.590797330359,-2191.5430500869384,186.6441000829679,-1293.2381558876039,-1974.178218231201,-641.7763387908935
1260.0,1067.8685223000682,-2195.1142043994746,202.19447419204226,-1297.4496220817566,-1980.510262878418,-627.6589308395386
1270.0,1066.1104341687944,-2198.612035413744,217.7381032916333,-1301.6178037490845,-1986.776235244751,-613.5205830001831
1280.0,1064.3167562150165,-2202.0367560005316,233.27450164716947,-1305.74275806427,-1992.9762258148194,-599.3618594436646
1290.0,1062.487712143311,-2205.3885820732958,248.80318840382657,-1309.824544620514,-1999.1103287506103,-585.1833206329346
1300.0,1060.6235260113617,-2208.6677324886446,264.3236875943616,-1313.863225391388,-2005.178641784668,-570.9855232696533
1310.0,1058.7244222354127,-2211.8744289969177,279.83552809815353,-1317.8588646774292,-2011.1812661895751,-556.7690203247071
1320.0,1056.790625527045,-2215.008896147406,295.3382437029812,-1321.8115290679932,-2017.1183067016602,-542.5343609390259
1330.0,1054.8223608980416,-2218.07136126403,310.83137303634055,-1325.721287410736,-2022.9898714904784,-528.2820904846192
1340.0,1052.819853552854,-2221.0620543005625,326.3144596104443,-1329.588210746765,-2028.7960720214844,-514.0127504577637
1350.0,1050.783328918764,-2223.9812078316454,341.7870517795131,-1333.412372291565,-2034.5370230560302,-499.72687852478026
1360.0,1048.7130125873473,-2226.8290569709156,357.2487027520383,-1337.1938473892212,-2040.2128425750732,-485.42500847625735
1370.0,1046.6091302981097,-2229.6058392939717,372.6989705735191,-1340.9327134628295,-2045.8236517181397,-471.1076702194214
1380.0,1044.4719078635283,-2232.311794750641,388.13741814004214,-1344.6290499725342,-2051.3695746917724,-456.77538972473144
1390.0,1042.3015711840596,-2234.947165640383,403.5636131297506,-1348.2829383926392,-2056.8507387390137,-442.42868908691406
1400.0,1040.098346205056,-2237.512196522805,418.9771280758626,-1351.8944621543885,-2062.2672740936277,-428.06808642578125
1410.0,1037.8624588488258,-2240.007134145947,434.3775402772618,-1355.4637066192627,-2067.619313858032,-413.69409593200686
1420.0,1035.5941350433136,-2242.432227385067,449.7644318254221,-1358.9907590179444,-2072.906994003296,-399.3072278366089
1430.0,1033.2936006596776,-2244.7877271997786,465.1373895750808,-1362.4757084388732,-2078.1304532928466,-384.9079884109497
1440.0,1030.961081466523,-2247.07388652911,480.4960051433891,-1365.9186457710266,-2083.2898331909178,-370.49687992858884
1450.0,1028.5968031348664,-2249.2909602637997,495.8398748822223,-1369.3196636695861,-2088.38527784729,-356.0744006881714
1460.0,1026.200991211799,-2251.4392051854493,511.1685998613175,-1372.6788565254212,-2093.416934036255,-341.64104500579833
1470.0,1023.7738710604839,-2253.5188798681534,526.4817858674293,-1375.9963204078674,-2098.3849510650634,-327.19730317687987
1480.0,1021.3156678459293,-2255.5302446484966,541.7790433512179,-1379.2721530456542,-2103.2894807281496,-312.7436615142822
1490.0,1018.8266065159074,-2257.4735615641666,557.059987430152,-1382.5064537887574,-2108.1306772613525,-298.2806023254395
1500.0,1016.3069118003427,-2259.3490942928843,572.3242378899315,-1385.6993235588075,-2112.9086973114013,-283.8086038970947
1510.0,1013.7568081336261,-2261.157108086917,587.5714191291099,-1388.8508648223876,-2117.6236998291015,-269.3281405105591
1520.0,1011.1765196409606,-2262.897869702364,602.8011601349394,-1391.9611815490723,-2122.275846008301,-254.83968244171143
1530.0,1008.5662701675337,-2264.57164739212,618.0130945086261,-1395.0303791885376,-2126.8652993164064,-240.34369594573974
1540.0,1005.9262831915979,-2266.1787107879873,633.2068603847266,-1398.0585646095276,-2131.392225341797,-225.8406432800293
1550.0,1003.2567818321586,-2267.7193308920505,648.3821004381135,-1401.0458460960388,-2135.856791793823,-211.3309826965332
1560.0,1000.5579888222251,-2269.1937799947855,663.5384618735318,-1403.9923332862854,-2140.2591684417725,-196.81516842651368
1570.0,997.8301264709902,-2270.602331635126,678.6755963538828,-1406.8981371574403,-2144.5995270385743,-182.29365072631836
1580.0,995.0734166795148,-2271.9452605439883,693.7931600485393,-1409.7633699760438,-2148.878041320801,-167.7668758239746
1590.0,992.2880808842342,-2273.2228425934277,708.8908135216343,-1412.588145275116,-2153.0948869018553,-153.2352859954834
1600.0,989.4743400446282,-2274.435354734156,723.9682217689815,-1415.3725778160094,-2157.250241241455,-138.69931951141356
1610.0,986.6324146362291,-2275.5830749625807,739.0250541846486,-1418.116783557892,-2161.344283615112,-124.15941065979004
