sat1Name,LLO-2-0
sat1Smaj,3416.853
sat1Ecc,0.359146
sat1Inc,90.188
sat1RAAN,237.221
sat1ArgPer,291.43
sat1TrAnom,0
Time[EpSec],xF[km],yF[km],zF[km],xI[km],yI[km],zI[km]
0.0,947.3116999542282,-1132.4477574688324,-1617.0856019415523,-427.5178456459045,-676.2661513061523,-2038.3070937728883
10.0,951.3780262093792,-1145.103263784019,-1605.7714669695217,-436.3169676475525,-689.8917942504883,-2031.885935180664
20.0,955.3992557825245,-1157.7055149174228,-1594.3823495894505,-445.0957156867981,-703.4852224578857,-2025.3698969726563
30.0,959.3752071410195,-1170.253924088434,-1582.9187872275468,-453.8536814002991,-717.0458036804199,-2018.759290550232
40.0,963.3057031454974,-1182.7479098525023,-1571.3813244343926,-462.5904585342407,-730.5729089508056,-2012.0544364242553
50.0,967.1905711402392,-1195.186896231641,-1559.7705127573645,-471.3056430091858,-744.065912765503,-2005.2556641540527
60.0,971.0296429317546,-1207.5703127907168,-1548.0869106310633,-479.9988330001831,-757.524193145752,-1998.3633122558595
70.0,974.8227548818566,-1219.8975947866497,-1536.3310832776233,-488.66962901687623,-770.9471318206787,-1991.3777281723023
80.0,978.5697478784283,-1232.168183248456,-1524.5036025561449,-497.31763397979734,-784.3341143035889,-1984.2992681427002
90.0,982.2704674029602,-1244.381525090675,-1512.6050468734807,-505.94245329666137,-797.6845300292969,-1977.128297164917
100.0,985.9247635324512,-1256.5370732150939,-1500.6360010503251,-514.543694934845,-810.9977724609375,-1969.8651888961792
110.0,989.5324909765192,-1268.634286615293,-1488.5970562024793,-523.1209695014953,-824.2732392120362,-1962.5103255767822
120.0,993.0935090704035,-1280.6726304483036,-1476.4888096187337,-531.6738903083801,-837.5103321228028,-1955.0640979309082
130.0,996.6076818525061,-1292.6515761782352,-1464.3118646259172,-540.2020734519958,-850.7084574432373,-1947.5269050979614
140.0,1000.0748780387647,-1304.5706016298482,-1452.06683044447,-548.7051378746032,-863.8670258941651,-1939.8991545028687
150.0,1003.4949710429418,-1316.4291910853296,-1439.75432210963,-557.1827054405212,-876.985452758789,-1932.1812618103027
160.0,1006.8678390036941,-1328.2268353984414,-1427.3749602776018,-565.6344010162353,-890.0631580352783,-1924.3736507797241
170.0,1010.1933648066113,-1339.9630320407591,-1414.9293711252337,-574.0598525047302,-903.0995665130615,-1916.4767531890868
180.0,1013.471436062877,-1351.6372852142015,-1402.4181862142314,-582.4586909484864,-916.0941078643799,-1908.4910087280273
190.0,1016.7019451799964,-1363.249105930578,-1389.842042333466,-590.8305505676269,-929.046216796875,-1900.4168648910522
200.0,1019.8847892814358,-1374.7980120596915,-1377.2015813985684,-599.1750688400268,-941.9553330535889,-1892.2547768707275
210.0,1023.0198703125219,-1386.2835284549305,-1364.4974502706489,-607.491886554718,-954.8209016265869,-1884.0052074508667
220.0,1026.1070949711127,-1397.7051869723443,-1351.7303006352201,-615.7806478691101,-967.642372756958,-1875.668626876831
230.0,1029.1463747561618,-1409.0625265781282,-1338.9007888778872,-624.041000377655,-980.4192020721435,-1867.245512779236
240.0,1032.1376259428114,-1420.3550934134598,-1326.0095758859748,-632.2725951728821,-993.1508506774902,-1858.7363499984742
250.0,1035.080769596743,-1431.582440824392,-1313.0573269810025,-640.4750868797303,-1005.8367852020264,-1850.141630531311
260.0,1037.975731568091,-1442.7441294719251,-1300.0447117023746,-648.6481337394714,-1018.476477935791,-1841.4618533554078
270.0,1040.8224425119909,-1453.8397273631838,-1286.9724037200954,-656.7913976364135,-1031.0694068908692,-1832.6975243606566
280.0,1043.620837834427,-1464.8688099055419,-1273.8410806336083,-664.9045441741944,-1043.6150558624267,-1823.8491561584472
290.0,1046.3708577139184,-1475.830959963403,-1260.6514238926304,-672.9872427101135,-1056.112914505005,-1814.9172680282593
300.0,1049.0724471208162,-1486.725767928752,-1247.4041185673875,-681.0391664085388,-1068.5624784698487,-1805.9023857269287
310.0,1051.72555577664,-1497.552831739568,-1234.0998532842736,-689.0599922828675,-1080.9632494049072,-1796.805041419983
320.0,1054.3301381274966,-1508.3117569336914,-1220.739320006406,-697.0494012527466,-1093.3147350463867,-1787.6257734832764
330.0,1056.8861533790403,-1519.0021567071449,-1207.3232139344584,-705.0070781822204,-1105.6164493103026,-1778.3651264343262
340.0,1059.3935654571133,-1529.6236519371282,-1193.8522333403293,-712.9327119178772,-1117.867912338257,-1769.0236507720947
350.0,1061.8523429691263,-1540.17587121842,-1180.3270794145892,-720.8259953422546,-1130.068650543213,-1759.6019028320313
360.0,1064.262459241726,-1550.65845090312,-1166.748456112539,-728.6866253929138,-1142.2181967163085,-1750.1004446640015
370.0,1066.6238922513048,-1561.0710351231885,-1153.1170700401867,-736.5143031196594,-1154.3160900268554,-1740.5198439102173
380.0,1068.9366246336604,-1571.413275837012,-1139.4336302576696,-744.3087337188721,-1166.3618761291505,-1730.8606736373902
390.0,1071.2006436626798,-1581.6848328278181,-1125.6988481545593,-752.0696265449524,-1178.3551071929933,-1721.1235122146606
400.0,1073.4159412123768,-1591.885373748517,-1111.9134373041256,-759.796695175171,-1190.295341949463,-1711.3089431762696
410.0,1075.5825137433758,-1602.0145741303675,-1098.078113332815,-767.489657421112,-1202.1821457366943,-1701.4175550994873
420.0,1077.7003622696493,-1612.0721173988838,-1084.1935937129294,-775.1482353630066,-1214.015090560913,-1691.44994140625
430.0,1079.7694923467882,-1622.0576948981088,-1070.2605976868858,-782.772155380249,-1225.793755126953,-1681.4067002944946
440.0,1081.7899140292504,-1631.9710058740163,-1056.279846079056,-790.3611481628418,-1237.5177248687744,-1671.2884345474242
450.0,1083.7616418480166,-1641.8117575251758,-1042.252061158554,-797.914948764801,-1249.186592010498,-1661.095751411438
460.0,1085.6846947777462,-1651.5796649709546,-1028.1779664925477,-805.433296596527,-1260.799955581665,-1650.8292624435426
470.0,1087.5590962279152,-1661.2744512875379,-1014.0582868092919,-812.9159354667663,-1272.3574214782716,-1640.4895833892822
480.0,1089.3848739425378,-1670.8958474624817,-999.8937478602015,-820.3626135940551,-1283.8586024169922,-1630.0773340148926
490.0,1091.1620600751157,-1680.443592451958,-985.6850762486208,-827.773083618164,-1295.3031180877686,-1619.5931379852295
500.0,1092.8906910336077,-1689.917433123578,-971.4329993146097,-835.1471026382446,-1306.690595046997,-1609.037622695923
510.0,1094.5708075406546,-1699.31712427387,-957.1382450028781,-842.4844321975708,-1318.0206668243409,-1598.4114191741944
520.0,1096.2024545254565,-1708.64242860686,-942.8015416973282,-849.7848383216858,-1329.2929738922119,-1587.7151618881226
530.0,1097.785681158658,-1717.8931167489143,-928.4236180734129,-857.0480915145874,-1340.5071637573242,-1576.9494886245727
540.0,1099.3205407478335,-1727.0689672039491,-914.0052030209694,-864.2739667816162,-1351.6628908843993,-1566.1150403747558
550.0,1100.8070907082026,-1736.169766330277,-899.547025443589,-871.4622436218261,-1362.7598167419433,-1555.2124611358643
560.0,1102.245392558756,-1745.1953083602466,-885.0498141489392,-878.6127060546875,-1373.7976098480224,-1544.2423978118898
570.0,1103.6355118547249,-1754.1453953395712,-870.5142977197678,-885.7251426010132,-1384.775945739746,-1533.205500061035
580.0,1104.9775181241205,-1763.0198371132772,-855.9412044064165,-892.7993463058472,-1395.6945069580079,-1522.102420173645
590.0,1106.2714848682783,-1771.8184513226283,-841.331261921371,-899.8351147422791,-1406.5529831237793,-1510.9338128814697
600.0,1107.5174894921272,-1780.5410633432737,-826.6851973782342,-906.8322499961853,-1417.3510708770752,-1499.7003352661134
610.0,1108.7156132552834,-1789.1875062659215,-812.0037371716886,-913.7905586738586,-1428.0884738769532,-1488.4026466293335
620.0,1109.8659412188597,-1797.7576208641538,-797.2876067882637,-920.7098519058228,-1438.7649028167725,-1477.0414082946777
630.0,1110.9685622455504,-1806.2512555696628,-782.5375307303277,-927.5899453315735,-1449.380075439453,-1465.617283531189
640.0,1112.0235688813752,-1814.6682664072134,-767.7542323970091,-934.4306591033935,-1459.9337164611816,-1454.1309373931886
650.0,1113.0310573641536,-1823.0085169930362,-752.9384339411367,-941.2318178825378,-1470.4255576324463,-1442.5830365905763
660.0,1113.9911275564068,-1831.271878460134,-738.0908561531944,-947.9932508163453,-1480.8553376922607,-1430.974249343872
670.0,1114.9038828773523,-1839.4582294211637,-723.2122183529248,-954.7147915458679,-1491.2228023376465,-1419.3052452545166
680.0,1115.7694302812763,-1847.5674559455308,-708.3032382922343,-961.3962781867981,-1501.5277042388916,-1407.5766952056886
690.0,1116.5878802095958,-1855.5994514948827,-693.3646319919501,-968.0375533218383,-1511.769803024292,-1395.7892711791992
700.0,1117.3593464886267,-1863.5541168610757,-678.3971136796268,-974.6384639816284,-1521.9488652038574,-1383.943646156311
710.0,1118.0839463383306,-1871.4313601311426,-663.4013956582875,-981.1988616333008,-1532.0646641998292,-1372.040493988037
720.0,1118.7618003069008,-1879.2310966633192,-648.378188206542,-987.7186021766663,-1542.1169803314208,-1360.0804892807007
730.0,1119.393032172682,-1886.9532489687274,-633.3281994520335,-994.1975459098816,-1552.1056007232667,-1348.0643072204589
740.0,1119.9777689731216,-1894.5977467109585,-618.2521353119997,-1000.6355575141906,-1562.0303193511963,-1335.9926235275268
750.0,1120.5161408571153,-1902.1645266212029,-603.150699337863,-1007.0325060501099,-1571.8909369506837,-1323.866114250183
760.0,1121.0082811147481,-1909.6535324550616,-588.0245926607806,-1013.3882649230957,-1581.6872610321045,-1311.6854557113647
770.0,1121.4543260785345,-1917.0647149211084,-572.8745138742817,-1019.7027118644714,-1591.419105819702,-1299.451324356079
780.0,1121.8544150857697,-1924.398031629052,-557.7011589276648,-1025.9757289123536,-1601.086292236328,-1287.1643966293334
790.0,1122.20869039476,-1931.6534470164647,-542.5052210638117,-1032.2072023925782,-1610.6886478271485,-1274.825348876953
800.0,1122.5172971938132,-1938.830932307754,-527.2873907025115,-1038.3970228843689,-1620.2260067901611,-1262.43485723114
810.0,1122.780383468863,-1945.9304654077484,-512.0483553534136,-1044.5450852012634,-1629.698209854126,-1249.9935974655152
820.0,1122.9981000177768,-1952.9520308779674,-496.7887995415777,-1050.6512883605958,-1639.105104309082,-1237.5022449264527
830.0,1123.170600342726,-1959.8956198547364,-481.50940472273794,-1056.715535572052,-1648.446543914795,-1224.9614744033813
840.0,1123.2980406250726,-1966.761229958211,-466.2108491903733,-1062.7377341804504,-1657.7223888702392,-1212.3719600143434
850.0,1123.3805796819277,-1973.548865276714,-450.8938079769042,-1068.7177956695557,-1666.9325058135987,-1199.7343750991822
860.0,1123.418378880256,-1980.258536237175,-435.5589528238685,-1074.6556356048584,-1676.0767677001952,-1187.04939213562
870.0,1123.4116020844667,-1986.890259568013,-420.20695207507583,-1080.5511736259461,-1685.1550537872315,-1174.3176826171875
880.0,1123.3604156123054,-1993.4440582119705,-404.8384705963796,-1086.4043333969116,-1694.1672495880127,-1161.539916946411
890.0,1123.2649882018197,-1999.9199612735656,-389.4541697172801,-1092.2150425834657,-1703.1132468414307,-1148.7167643585205
900.0,1123.1254909263787,-2006.3180039332337,-374.0547071477497,-1097.983232826233,-1711.9929434356688,-1135.8488927993774
910.0,1122.9420971465333,-2012.6382273582392,-358.6407369321062,-1103.7088396873473,-1720.806243347168,-1122.9369688491822
920.0,1122.7149824479548,-2018.8806786516852,-343.2129093749595,-1109.3918026428223,-1729.5530565948486,-1109.981657623291
930.0,1122.4443246214466,-2025.0454107707253,-327.7718709425356,-1115.0320650215149,-1738.2332992248535,-1096.9836226577759
940.0,1122.130303556164,-2031.1324824319656,-312.3182642659195,-1120.629573993683,-1746.8468931732177,-1083.9435258560181
950.0,1121.7731012486488,-2037.1419580688805,-296.8527280119727,-1126.1842805137635,-1755.3937663116455,-1070.8620273666381
960.0,1121.3729016782759,-2043.0739077198696,-281.3758969053447,-1131.6961393051147,-1763.8738522796632,-1057.7397855377196
970.0,1120.9298908183036,-2048.9284069755463,-265.8884015782389,-1137.1651088027954,-1772.2870905303955,-1044.5774567718506
980.0,1120.4442565635047,-2054.7055368966776,-250.39086859054373,-1142.5911511268616,-1780.633426223755,-1031.375695503235
990.0,1119.9161886271534,-2060.4053839060043,-234.8839203584527,-1147.9742320480348,-1788.9128101196288,-1018.1351540756226
1000.0,1119.3458785730834,-2066.0280397711426,-219.3681750955804,-1153.3143209457398,-1797.1251986236573,-1004.8564826965332
1010.0,1118.7335196840152,-2071.5736014456184,-203.84424676525592,-1158.6113907546996,-1805.2705536193848,-991.5403293151855
1020.0,1118.0793070036393,-2077.042171083252,-188.31274502928835,-1163.8654179534913,-1813.348842529297,-978.1873395919799
1030.0,1117.3834371555113,-2082.4338558580207,-172.77427525188833,-1169.0763825035094,-1821.3600380859375,-964.7981568069458
1040.0,1116.646108430482,-2087.7487679758283,-157.2294383762857,-1174.2442678146363,-1829.3041184539795,-951.3734217758179
1050.0,1115.86752060893,-2092.9870245244924,-141.67883096327097,-1179.3690607147216,-1837.1810670013429,-937.9137727966308
1060.0,1115.0478750374434,-2098.148747441501,-126.12304510706022,-1184.4507513847352,-1844.9908723754884,-924.4198455886841
1070.0,1114.187374455583,-2103.2340634120105,-110.56266840777266,-1189.4893333511352,-1852.7335283355712,-910.8922731933594
1080.0,1113.2862230286794,-2108.243103783953,-94.99828394343913,-1194.4848034172057,-1860.4090337371827,-897.3316859359741
1090.0,1112.3446262755663,-2113.176004515553,-79.43047024446574,-1199.4371616363526,-1868.0173924713135,-883.7387113723755
1100.0,1111.3627910088749,-2118.0329060588497,-63.85980124504492,-1204.3464112586976,-1875.5586133728027,-870.1139741973877
1110.0,1110.3409253107322,-2122.813953315153,-48.28684626009676,-1209.2125587043763,-1883.0327101898192,-856.458096206665
1120.0,1109.2792384373245,-2127.5192955260527,-32.71216997635167,-1214.0356135177612,-1890.439701461792,-842.7716962356567
1130.0,1108.177940855611,-2132.149086223254,-17.13633238558937,-1218.815588306427,-1897.7796105499267,-829.0553900985718
1140.0,1107.037244098444,-2136.703483119105,-1.5598888194292084,-1223.5524987297058,-1905.0524654541016,-815.3097905502319
1150.0,1105.8573607711965,-2141.182648037559,14.016610112692113,-1228.2463634300232,-1912.2582988128663,-801.5355072174073
1160.0,1104.6385045403656,-2145.5867468750653,29.592618566659628,-1232.8972040138244,-1919.3971478881836,-787.7331465454101
1170.0,1103.3808899861554,-2149.915949440427,45.16759540203284,-1237.505044986725,-1926.4690543518066,-773.9033117752075
1180.0,1102.0847326663763,-2154.1704294566557,60.74100428682449,-1242.069913722992,-1933.4740643768312,-760.0466028671265
1190.0,1100.7502490166905,-2158.3503644437087,76.31231365959545,-1246.591840423584,-1940.4122284851073,-746.1636164779663
1200.0,1099.3776562873654,-2162.455935633561,91.88099675582349,-1251.0708580703736,-1947.2836014709474,-732.2549458999633
1210.0,1097.9671725637058,-2166.487327928973,107.44653162825387,-1255.5070023880005,-1954.0882424011231,-718.3211810379029
1220.0,1096.519016668759,-2170.4447297931692,123.00840115573071,-1259.900311794281,-1960.8262144927978,-704.3629083480835
1230.0,1095.0334081357196,-2174.328333179071,138.56609304028296,-1264.2508273620606,-1967.4975850524902,-690.3807108154297
1240.0,1093.5105671858735,-2178.138333474714,154.1190998298655,-1268.5585927772522,-1974.1024254455567,-676.3751679153443
1250.0,1091.9507146578237,-2181.874929405329,169.6669189191414,-1272.8236543006897,-1980.6408109893798,-662.3468555679322
1260.0,1090.3540720006526,-2185.538322973056,185.20905255083554,-1277.0460607147218,-1987.1128209228516,-648.2963461227417
1270.0,1088.7208611864344,-2189.1287193661083,200.74500783077943,-1281.2258632926942,-1993.5185382995605,-634.2242082977295
1280.0,1087.0513047441266,-2192.6463269106257,216.27429672678943,-1285.3631157455445,-1999.858049987793,-620.1310071792602
1290.0,1085.3456256308596,-2196.091356968218,231.79643605224555,-1289.4578741950988,-2006.1314465179444,-606.0173041763305
1300.0,1083.6040472603272,-2199.4640238769002,247.3109474930911,-1293.5101971168517,-2012.3388220825195,-591.8836569900512
1310.0,1081.8267934481335,-2202.7645448906605,262.8173575851597,-1297.5201453094483,-2018.480274459839,-577.7306196060181
1320.0,1080.014088364513,-2205.9931400864884,278.3151977405368,-1301.4877818489074,-2024.5559049377441,-563.5587422332763
1330.0,1078.1661565117122,-2209.1500323089736,293.80400419520663,-1305.4131720466614,-2030.5658182525635,-549.3685713348389
1340.0,1076.283222667505,-2212.2354470933305,309.28331806262474,-1309.2963834152222,-2036.5101225280762,-535.1606495437622
1350.0,1074.365511897132,-2215.2496126002166,324.7526852798085,-1313.137485610962,-2042.3889292297363,-520.935515701294
1360.0,1072.4132494453766,-2218.1927595432517,340.21165662984043,-1316.9365504226685,-2048.2023530578613,-506.693704788208
1370.0,1070.426660767925,-2221.0651211107306,355.65978770747256,-1320.6936516952514,-2053.9505119171145,-492.43574794769285
1380.0,1068.4059714622408,-2223.866932921852,371.0966389450629,-1324.4088653221131,-2059.633526855469,-478.1621724319458
1390.0,1066.3514072596663,-2226.598432941585,386.521775588019,-1328.0822691841126,-2065.2515220031737,-463.87350160217284
1400.0,1064.263193967567,-2229.259861411867,401.93476765212637,-1331.7139431152343,-2070.8046244812012,-449.57025493621825
1410.0,1062.1415574548432,-2231.8514608148,417.335189959556,-1335.3039688796996,-2076.292964385986,-435.2529479827881
1420.0,1059.9867236097043,-2234.3734757549723,432.7226221036749,-1338.8524300994873,-2081.7166746826174,-420.9220923538208
1430.0,1057.7989183240343,-2236.826152959285,448.096648429125,-1342.3594122543334,-2087.075891189575,-406.5781957397461
1440.0,1055.5783674533086,-2239.209741157329,463.4568580377043,-1345.825002609253,-2092.3707524871825,-392.2217618637085
1450.0,1053.3252967678043,-2241.5244910388155,478.80284473067843,-1349.2492901954652,-2097.6013998413086,-377.853290512085
1460.0,1051.0399319884223,-2243.7706552253967,494.13420706199736,-1352.632365776062,-2102.7679772338865,-363.4732774887085
1470.0,1048.7224986768865,-2245.9484881519106,509.45054826621725,-1355.9743217964171,-2107.870631195068,-349.08221462249753
1480.0,1046.373222277321,-2248.058246048119,524.7514762353088,-1359.2752523460388,-2112.9095108184815,-334.68058979797365
1490.0,1043.992328014655,-2250.1001868432186,540.0366035351018,-1362.5352531356812,-2117.88476763916,-320.2688868865967
1500.0,1041.5800409471096,-2252.0745701435358,555.3055473678291,-1365.7544214515685,-2122.796555648804,-305.8475857925415
1510.0,1039.1365859143286,-2253.98165717286,570.5579295763497,-1368.9328561210632,-2127.645031234741,-291.4171624221802
1520.0,1036.662187461136,-2255.8217106639395,585.7933765568824,-1372.070657470703,-2132.4303530273437,-276.9780887145996
1530.0,1034.1570699079725,-2257.594994880925,601.0115193217162,-1375.1679273071288,-2137.152681991577,-262.530832611084
1540.0,1031.6214572187641,-2259.301775477597,616.2119934223867,-1378.2247688598634,-2141.8121812286377,-248.07585805511474
1550.0,1029.055573072982,-2260.942319525023,631.3944389375232,-1381.2412867736816,-2146.4090160369874,-233.61362503051757
1560.0,1026.4596407757313,-2262.5168953812945,646.5585004543128,-1384.2175870399476,-2150.943353775024,-219.14458952331543
1570.0,1023.8338832843509,-2264.0257727128305,661.7038270661113,-1387.1537770004272,-2155.4153638916014,-204.6692035369873
1580.0,1021.1785231475553,-2265.469222370177,676.8300723045398,-1390.0499652786255,-2159.825217788696,-190.18791510772706
1590.0,1018.4937824970395,-2266.847516391687,691.936894139489,-1392.9062617797852,-2164.173088821411,-175.70116830444337
1600.0,1015.7798830443704,-2268.160927916925,707.0239549474329,-1395.7227776260377,-2168.4591522369383,-161.20940323638916
1610.0,1013.0370460214782,-2269.4097311515725,722.0909215092372,-1398.499625152588,-2172.683585113525,-146.71305603027344
