sat1Name,LLO-5-2
sat1Smaj,3416.853
sat1Ecc,0.359146
sat1Inc,90.188
sat1RAAN,238.721
sat1ArgPer,292.43
sat1TrAnom,0
Time[EpSec],xF[km],yF[km],zF[km],xI[km],yI[km],zI[km]
0.0,975.0672613834862,-1149.6911753565466,-1588.1615979942494,-428.1155216140747,-717.4999899139405,-2024.0341125793457
10.0,979.3659932643559,-1161.992018497487,-1576.5469982857878,-436.49627418136595,-731.2529294281006,-2017.3308586959838
20.0,983.6183404701085,-1174.2388301609183,-1564.8587808216669,-444.856644405365,-744.9717228240967,-2010.5334048461914
30.0,987.8241108249721,-1186.4310401756406,-1553.097496894469,-453.19624347305296,-758.6557321624756,-2003.642075531006
40.0,991.9831166645445,-1198.5680837403447,-1541.2637047731876,-461.51468465042115,-772.3043229522705,-1996.6572042694092
50.0,996.0951749176015,-1210.649401589925,-1529.357969603127,-469.81158338165284,-785.9168643341064,-1989.57913356781
60.0,1000.1601071770572,-1222.6744401102014,-1517.3808632559376,-478.0865573539734,-799.4927292480469,-1982.4082148284913
70.0,1004.1777396378171,-1234.6426513776137,-1505.332964250607,-486.3392265663147,-813.0312944335938,-1975.144808265686
80.0,1008.1479032073938,-1246.5534933311185,-1493.2148576081076,-494.5692134094238,-826.5319406585693,-1967.7892828445435
90.0,1012.0704335230987,-1258.4064298533356,-1481.027134737323,-502.776142742157,-839.9940528106689,-1960.3420161972047
100.0,1015.9451709357493,-1270.2009308481743,-1468.7703933130135,-510.95964195251463,-853.4170199737549,-1952.8033945236207
110.0,1019.7719605918056,-1281.936472364099,-1456.445237153892,-519.1193410301208,-866.8002355957032,-1945.1738125305176
120.0,1023.5506523886714,-1293.612536650964,-1444.0522760837766,-527.2548726387024,-880.1430975341797,-1937.4536733016969
130.0,1027.2811010999117,-1305.228612329169,-1431.5921258074707,-535.3658721923828,-893.4450082855225,-1929.6433882598876
140.0,1030.9631662850536,-1316.784194381313,-1419.0654077945917,-543.451977897644,-906.7053749542237,-1921.743377029419
150.0,1034.596712367757,-1328.2787843097929,-1406.4727491172464,-551.5128308525085,-919.9236094512939,-1913.7540673446656
160.0,1038.181608669643,-1339.7118901985818,-1393.8147823240524,-559.5480750770569,-933.0991286010742,-1905.6758949584962
170.0,1041.7177293427842,-1351.0830267800443,-1381.092145340569,-567.5573576126098,-946.2313541564941,-1897.5093035430907
180.0,1045.204953506633,-1362.3917155546574,-1368.305481269889,-575.5403285484314,-959.3197130432129,-1889.2547445755006
190.0,1048.6431651384553,-1373.6374848186888,-1355.4554383165803,-583.4966411094665,-972.3636373138428,-1880.9126772384643
200.0,1052.0322531848828,-1384.8198697934145,-1342.542669585561,-591.4259517059326,-985.3625643768311,-1872.4835682983398
210.0,1055.3721114731516,-1395.938412636376,-1329.5678329938135,-599.3279199905395,-998.3159369659423,-1863.967891998291
220.0,1058.6626388058612,-1406.9926625658568,-1316.5315911018092,-607.2022089195251,-1011.2232033386231,-1855.3661299591065
230.0,1061.9037389214536,-1417.982175894677,-1303.4346109539083,-615.0484848060607,-1024.0838173217774,-1846.6787710266112
240.0,1065.095320482678,-1428.906516097363,-1290.277563990503,-622.8664173736572,-1036.8972383728028,-1837.906311203003
250.0,1068.2372971273455,-1439.7652538856698,-1277.0611258335182,-630.6556798133851,-1049.6629317321776,-1829.049253479004
260.0,1071.3295874343623,-1450.5579672640538,-1263.7859761832913,-638.4159488334656,-1062.3803684692382,-1820.1081077423096
270.0,1074.3721149010714,-1461.284241559429,-1250.4527986802154,-646.1469047088623,-1075.0490255279542,-1811.083390647888
280.0,1077.3648080178957,-1471.9436695149961,-1237.062280700067,-653.8482313232422,-1087.6683859100342,-1801.9756254730225
290.0,1080.3076001612073,-1482.535851307453,-1223.6151132783507,-661.5196162376404,-1100.2379386291504,-1792.7853420181275
300.0,1083.2004296736052,-1493.060394611537,-1210.1119909190604,-669.160750705719,-1112.757178878784,-1783.5130764694213
310.0,1086.043239804919,-1503.5169146406752,-1196.553611440497,-676.7713297462464,-1125.2256080627442,-1774.159371246338
320.0,1088.835978713151,-1513.9050341804455,-1182.9406758669004,-684.3510521659852,-1137.6427338562012,-1764.7247749099731
330.0,1091.578599467941,-1524.2243836470436,-1169.273888224345,-691.8996206169129,-1150.0080703125,-1755.20984198761
340.0,1094.2710600187256,-1534.474601094473,-1155.5539554499035,-699.4167416152955,-1162.3211378784179,-1745.6151328811645
350.0,1096.913323188281,-1544.655332278541,-1141.781587180411,-706.9021256027222,-1174.5814635009765,-1735.941213684082
360.0,1099.5053566501392,-1554.7662306607544,-1127.9574956686813,-714.3554869651795,-1186.7885806427003,-1726.1886560974121
370.0,1102.0471329302804,-1564.8069574593396,-1114.0823955725932,-721.7765440788269,-1198.9420293884277,-1716.358037246704
380.0,1104.5386293653398,-1574.7771816569377,-1100.1570038429375,-729.1650193367004,-1211.0413564605713,-1706.449939567566
390.0,1106.979828076081,-1584.6765800175933,-1086.1820395713473,-736.5206391792298,-1223.0861152648927,-1696.4649506607057
400.0,1109.3707159800474,-1594.5048371358248,-1072.158223834644,-743.8431341362,-1235.0758659820556,-1686.4036631622314
410.0,1111.7112847520375,-1604.261645432977,-1058.0862795347955,-751.1322388420105,-1247.0101755981445,-1676.2666745834351
420.0,1114.0015307521867,-1613.9467051513423,-1043.9669312841445,-758.3876920700073,-1258.8886178894043,-1666.0545871810914
430.0,1116.2414550830367,-1623.5597244051992,-1029.800905225724,-765.6092367515564,-1270.7107735595703,-1655.7680078201295
440.0,1118.4310634961064,-1633.1004191608877,-1015.5889288960908,-772.7966200103759,-1282.4762302093507,-1645.4075478134155
450.0,1120.570366398541,-1642.5685132520507,-1001.3317311031792,-779.949593170166,-1294.1845823974609,-1634.9738228149415
460.0,1122.6593787961535,-1651.963738385733,-987.030041737575,-787.0679117927551,-1305.8354316711425,-1624.4674526290894
470.0,1124.6981202874747,-1661.2858341313336,-972.6845916621669,-794.1513356781006,-1317.4283865966797,-1613.8890611038207
480.0,1126.6866150187236,-1670.5345479364871,-958.2961125658094,-801.1996288986206,-1328.963062789917,-1603.2392759857178
490.0,1128.6248916337213,-1679.7096351064513,-943.8653367950844,-808.2125598106385,-1340.4390829315184,-1592.518728744507
500.0,1130.5129832692453,-1688.8108588006328,-929.3929972579698,-815.189901058197,-1351.8560767974855,-1581.7280544815064
510.0,1132.3509274918051,-1697.8379900166549,-914.8798272342061,-822.1314295959472,-1363.213681274414,-1570.8678917312623
520.0,1134.138766268442,-1706.7908075884275,-900.3265602775668,-829.0369267005921,-1374.511540374756,-1559.9388823623658
530.0,1135.8765459575357,-1715.6690981909176,-885.733930044271,-835.9061779823303,-1385.7493052978516,-1548.9416714172364
540.0,1137.5643171964557,-1724.4726562536973,-871.102670187021,-842.7389733772278,-1396.926634338379,-1537.8769069595337
550.0,1139.2021349365587,-1733.2012840286695,-856.4335142019675,-849.535107181549,-1408.0431930084228,-1526.7452399597169
560.0,1140.790058369818,-1741.8547915116064,-841.7271952914359,-856.2943780326843,-1419.0986539916992,-1515.5473241271973
570.0,1142.3281508640048,-1750.4329964149435,-826.9844462426544,-863.0165889167786,-1430.0926971282959,-1504.2838157730102
580.0,1143.816479975843,-1758.935724196353,-812.205999292495,-869.7015471878052,-1441.0250094909668,-1492.9553736953735
590.0,1145.2551173364632,-1767.3628079634548,-797.3925860075698,-876.3490645523071,-1451.895285293579,-1481.5626590118409
600.0,1146.6441386651736,-1775.7140884795263,-782.5449371211668,-882.958957069397,-1462.7032259674072,-1470.1063350143434
610.0,1147.9836236743806,-1783.9894141125496,-767.663782477637,-889.5310451545715,-1473.448540084839,-1458.5870670776367
620.0,1149.2736560741844,-1792.188640838197,-752.7498508070232,-896.0651535835266,-1484.1309434509278,-1447.005522453308
630.0,1150.5143234870425,-1800.3116321496996,-737.8038697099342,-902.5611114654541,-1494.750158996582,-1435.3623702087402
640.0,1151.7057173909807,-1808.3582590425265,-722.8265654481436,-909.0187522583008,-1505.305916809082,-1423.6582810134887
650.0,1152.8479331119286,-1816.3283999870625,-707.818662895635,-915.4379137496949,-1515.7979541320801,-1411.8939270858764
660.0,1153.9410697209873,-1824.2219408615156,-692.7808853585325,-921.8184380607605,-1526.2260153198242,-1400.0699819793701
670.0,1154.9852300635014,-1832.0387749309114,-677.7139544877788,-928.1601716156006,-1536.5898518829347,-1388.1871205062866
680.0,1155.980520603134,-1839.7788027725026,-662.6185901985791,-934.4629651489258,-1546.8892223663331,-1376.246018600464
690.0,1156.9270514476193,-1847.4419322478934,-647.4955105064357,-940.7266736907959,-1557.1238924102784,-1364.2473531646729
700.0,1157.824936264806,-1855.028078438161,-632.3454314183056,-946.9511565361023,-1567.2936347045897,-1352.1918019332886
710.0,1158.6742922581939,-1862.5371636255197,-617.1690668745612,-953.1362772636413,-1577.3982289733888,-1340.0800434036255
720.0,1159.4752400599025,-1869.9691171751133,-601.967128603067,-959.2819036750793,-1587.4374618988038,-1327.9127566452025
730.0,1160.2279037303813,-1877.3238755544185,-586.7403260094229,-965.3879078254699,-1597.411127166748,-1315.6906212005615
740.0,1160.93241068983,-1884.6013822265659,-571.4893661014021,-971.4541659698486,-1607.319025390625,-1303.4143169708252
750.0,1161.588891630234,-1891.8015875996107,-556.2149533796301,-977.480558555603,-1617.1609640655518,-1291.0845240783692
760.0,1162.1974805182099,-1898.924448987501,-540.9177897333773,-983.4669702072143,-1626.9367575836181,-1278.7019227600097
770.0,1162.7583144931111,-1905.969930528415,-525.5985743432753,-989.4132896995544,-1636.6462271575929,-1266.2671932296753
780.0,1163.2715338289308,-1912.9380031289295,-510.2580036088163,-995.3194099349976,-1646.2892007904052,-1253.781015586853
790.0,1163.7372818678982,-1919.8286444044757,-494.8967710192774,-1001.1852279281616,-1655.8655132446288,-1241.2440696640015
800.0,1164.1557050121257,-1926.641838624584,-479.51556710393294,-1007.0106447677613,-1665.3750060272216,-1228.657034965515
810.0,1164.5269526057477,-1933.3775766145552,-464.1150793051722,-1012.7955655975342,-1674.8175272979736,-1216.0205904922486
820.0,1164.8511768814149,-1940.0358557128181,-448.6959919397817,-1018.5398996047974,-1684.1929318237305,-1203.3354146804809
830.0,1165.1285329474445,-1946.6166797025974,-433.2589860871617,-1024.2435599708558,-1693.5010809783935,-1190.6021852798463
840.0,1165.3591787300907,-1953.1200587409182,-417.80473949444,-1029.906463848114,-1702.7418426971435,-1177.8215792312621
850.0,1165.5432748704875,-1959.5460092843855,-402.33392652002397,-1035.5285323448181,-1711.9150913848878,-1164.994272567749
860.0,1165.680984696013,-1965.8945540165437,-386.8472180543691,-1041.109690486908,-1721.0207078857422,-1152.1209403152466
870.0,1165.7724741799723,-1972.1657217924567,-371.3452814546913,-1046.6498671875,-1730.0585794525146,-1139.2022564086915
880.0,1165.8179118313933,-1978.3595475234329,-355.8287804525061,-1052.1489952087402,-1739.0285996398925,-1126.238893547058
890.0,1165.8174687308428,-1984.4760721849225,-340.2983750741143,-1057.6070111541749,-1747.9306683654786,-1113.2315231323241
900.0,1165.7713183601843,-1990.5153426385507,-324.75472162460363,-1063.0238554077148,-1756.764691696167,-1100.1808151626587
910.0,1165.679636656647,-1996.4774116449883,-309.1984725417565,-1068.399472114563,-1765.530581954956,-1087.087438117981
920.0,1165.542601869354,-2002.3623377420868,-293.63027642411026,-1073.7338091545105,-1774.2282575378417,-1073.9520589141846
930.0,1165.3603945457987,-2008.170185184196,-278.05077789212226,-1079.026818096161,-1782.8576429290772,-1060.7753427581788
940.0,1165.1331974784093,-2013.9010238572923,-262.4606175544406,-1084.2784541664123,-1791.418668624878,-1047.5579530792236
950.0,1164.861195640961,-2019.5549292163655,-246.860431982605,-1089.4886762123108,-1799.9112710723878,-1034.3005514755248
960.0,1164.5445761231151,-2025.1319821934128,-231.250853600909,-1094.6574466743468,-1808.3353926086427,-1021.0037975692749
970.0,1164.1835280823686,-2030.6322691246985,-215.6325106683144,-1099.78473154068,-1816.6909813995362,-1007.6683489608764
980.0,1163.7782427143331,-2036.055881683986,-200.0060272061954,-1104.8705003128052,-1824.9779914093017,-994.2948611373902
990.0,1163.3289131403667,-2041.4029167744898,-184.37202298787014,-1109.9147259750366,-1833.1963822631835,-980.8839874038696
1000.0,1162.8357344106441,-2046.673476488075,-168.7311134292055,-1114.9173849487304,-1841.3461192779541,-967.4363787765503
1010.0,1162.2989034242692,-2051.8676679978107,-153.0839095936505,-1119.8784570541382,-1849.4271733398436,-953.9526839370727
1020.0,1161.7186188682213,-2056.985603480652,-137.43101813160965,-1124.7979254760742,-1857.4395208435058,-940.4335491409302
1030.0,1161.0950812124347,-2062.027400082245,-121.7730412317228,-1129.6757767333984,-1865.3831436920166,-926.8796181640625
1040.0,1160.428492551731,-2066.9931797461704,-106.11057659905008,-1134.512000617981,-1873.2580290985106,-913.291532196045
1050.0,1159.7190566940258,-2071.8830692457473,-90.44421739352076,-1139.3065901794434,-1881.0641696929931,-899.6699298171997
1060.0,1158.9669789761322,-2076.6972000039236,-74.77455221959238,-1144.0595416717529,-1888.801563293457,-886.0154468917847
1070.0,1158.1724663103657,-2081.435708083228,-59.102165068684144,-1148.7708545074463,-1896.470212966919,-872.3287165298462
1080.0,1157.3357270666543,-2086.098734074216,-43.42763530707941,-1153.4405312461854,-1904.070126876831,-858.6103690109253
1090.0,1156.4569710748913,-2090.6864230309125,-27.751537628164165,-1158.0685775184631,-1911.6013182830811,-844.8610317306518
1100.0,1155.536409527639,-2095.198924371747,-12.074442028853344,-1162.6550020065308,-1919.063805419922,-831.0813291244507
1110.0,1154.5742549663396,-2099.6363918237944,3.60308620609669,-1167.1998164024353,-1926.4576114654542,-817.271882637024
1120.0,1153.5707211931845,-2103.9989833179156,19.280486532924346,-1171.7030353622436,-1933.7827644348145,-803.4333106460572
1130.0,1152.5260232623964,-2108.286860942438,34.95720318463107,-1176.1646764717102,-1941.039297164917,-789.5662284164429
1140.0,1151.440377426939,-2112.500190835711,50.632685184234404,-1180.5847601890564,-1948.2272472229004,-775.671248046875
1150.0,1150.3140010327659,-2116.6391431108455,66.30638636719343,-1184.963309829712,-1955.3466567993164,-761.7489784011841
1160.0,1149.147112582392,-2120.7038918147136,81.97776539175678,-1189.3003515052797,-1962.3975727386476,-747.8000251083374
1170.0,1147.9399315667652,-2124.6946147885324,97.64628577420791,-1193.5959140892028,-1969.380046356201,-733.8249904479981
1180.0,1146.6926785082064,-2128.611493641591,113.3114158725699,-1197.85002917099,-1976.294133453369,-719.8244733734131
1190.0,1145.4055748426856,-2132.454713634259,128.9726289252704,-1202.0627310256957,-1983.139894180298,-705.7990694122315
1200.0,1144.0788429551496,-2136.2244636549194,144.6294030759245,-1206.2340565681457,-1989.9173930664062,-691.7493706512452
1210.0,1142.7127060853816,-2139.9209360901664,160.28122134224196,-1210.36404529953,-1996.6266988677978,-677.6759657058716
1220.0,1141.3073882483018,-2143.544326760984,175.9275716500046,-1214.4527392883301,-2003.2678844909667,-663.5794396514892
1230.0,1139.8631142953332,-2147.0948348800725,191.56794685047026,-1218.5001831092834,-2009.8410270233155,-649.4603740158082
1240.0,1138.3801097446155,-2150.5726629192404,207.2018447075719,-1222.5064238128662,-2016.34620753479,-635.3193467102051
1250.0,1136.85860085706,-2153.9780166074615,222.82876791340894,-1226.4715108909606,-2022.783511138916,-621.1569320373535
1260.0,1135.298814508758,-2157.3111047861194,238.4482240864453,-1230.3954962158202,-2029.1530268249512,-606.9737006225586
1270.0,1133.7009781986503,-2160.5721393961535,254.05972577118467,-1234.2784340248108,-2035.4548474578858,-592.7702194137573
1280.0,1132.0653199628227,-2163.761335332145,269.6627904477551,-1238.1203808479308,-2041.6890696411133,-578.547051612854
1290.0,1130.3920683830522,-2166.878910457244,285.25694052362684,-1241.9213955078126,-2047.8557937316893,-564.304756690979
1300.0,1128.681452533574,-2169.925085466188,300.8417033476173,-1245.6815390396118,-2053.9551237335204,-550.0438903274536
1310.0,1126.9337019047694,-2172.900083838714,316.41661117482926,-1249.4008746833802,-2059.9871672058107,-535.7650044097901
1320.0,1125.1490464191334,-2175.804131768049,331.9812011948065,-1253.0794678230286,-2065.9520352478025,-521.4686469955444
1330.0,1123.3277163663422,-2178.6374580873157,347.5350155100155,-1256.7173859519958,-2071.849842407227,-507.1553622970581
1340.0,1121.4699423590828,-2181.4002942058137,363.07760114718985,-1260.3146986427307,-2077.6807066192628,-492.82569064331057
1350.0,1119.57595530446,-2184.0928740231207,378.60850999310003,-1263.8714774932862,-2083.4447491149904,-478.480168510437
1360.0,1117.6459863648342,-2186.7154338847236,394.12729887992515,-1267.3877961044311,-2089.142094406128,-464.1193284225464
1370.0,1115.6802669688823,-2189.2682125100846,409.6335295042875,-1270.8637300186158,-2094.7728702239992,-449.74369901275634
1380.0,1113.679028672519,-2191.7514509014786,425.12676841820405,-1274.2993567085266,-2100.3372073669434,-435.3538049697876
1390.0,1111.642503228227,-2194.1653923103017,440.60658705943507,-1277.694755519867,-2105.835239746094,-420.9501670227051
1400.0,1109.5709224984919,-2196.5102821502846,456.07256171127926,-1281.050007637024,-2111.2671042633056,-406.53330193328856
1410.0,1107.4645184517342,-2198.7863679504026,471.52427349013686,-1284.365196044922,-2116.6329407806397,-392.10372249603273
1420.0,1105.3235230768883,-2200.9938992683565,486.9613083196461,-1287.6404055061341,-2121.932891998291,-377.6619375152588
1430.0,1103.148168430869,-2203.1331276478822,502.38325695497747,-1290.875722492218,-2127.1671034851074,-363.208451789856
1440.0,1100.9386865285312,-2205.2043065425096,517.7897149176088,-1294.0712351837158,-2132.335723526001,-348.74376612091066
1450.0,1098.695309371333,-2207.2076912653497,533.1802825279898,-1297.227033405304,-2137.438903137207,-334.268377281189
1460.0,1096.4182688930496,-2209.1435389255553,548.5545648291586,-1300.34320860672,-2142.476795959473,-319.78277805328366
1470.0,1094.1077969127186,-2211.012108346379,563.9121716188471,-1303.4198538131714,-2147.4495581970214,-305.2874571685791
1480.0,1091.7641251561083,-2212.8136600524545,579.2527174207927,-1306.4570636024475,-2152.3573486175537,-290.7828993377685
1490.0,1089.3874851612904,-2214.548456153429,594.5758214326553,-1309.4549340591432,-2157.2003283996582,-276.2695852432251
1500.0,1086.9781083286618,-2216.216760345757,609.8811075429873,-1312.41356275177,-2161.978661178589,-261.7479915390015
1510.0,1084.5362258080468,-2217.8188378025893,625.1682042862068,-1315.333048686981,-2166.692512893677,-247.2185908355713
1520.0,1082.0620685456117,-2219.3549551494484,640.4367448335871,-1318.213492275238,-2171.3420518035887,-232.6818517150879
1530.0,1079.5558672193563,-2220.8253803998,655.6863669649242,-1321.0549953079224,-2175.927448394775,-218.13823872375488
1540.0,1077.0178522255696,-2222.230382895457,670.9167130429945,-1323.8576609077454,-2180.448875335693,-203.58821237945557
1550.0,1074.4482536403427,-2223.5702332649053,686.1274299971731,-1326.6215935211183,-2184.9065074157716,-189.03222916412352
1560.0,1071.8473012185566,-2224.8452033492326,701.3181692904403,-1329.3468988494874,-2189.3005214996338,-174.47074153900147
1570.0,1069.2152243500789,-2226.055566170929,716.4885868889821,-1332.03368384552,-2193.6310964660643,-159.90419795227052
1580.0,1066.552252071194,-2227.20159588465,731.6383432695895,-1334.6820566711426,-2197.898413192749,-145.33304282379152
1590.0,1063.8586129595994,-2228.283567686295,746.767103339696,-1337.2921266670228,-2202.1026544036863,-130.75771656799316
1600.0,1061.1345352206843,-2229.3017578169597,761.8745364657385,-1339.8640043182372,-2206.2440047454834,-116.17865559387207
1610.0,1058.3802466109753,-2230.256443487488,776.9603163977766,-1342.3978012237549,-2210.322650665283,-101.59629233551026
