sat1Name,LLO-2-5
sat1Smaj,3416.853
sat1Ecc,0.359146
sat1Inc,90.188
sat1RAAN,237.221
sat1ArgPer,293.93
sat1TrAnom,0
Time[EpSec],xF[km],yF[km],zF[km],xI[km],yI[km],zI[km]
0.0,968.9622716115582,-1200.6682861388058,-1553.8053311508077,-475.34320236587524,-750.3130799713135,-2001.4700463027955
10.0,972.6931770421622,-1212.9171957522087,-1541.9414700835957,-483.9842614974976,-763.6890087738037,-1994.3475048446655
20.0,976.3780122315515,-1225.1096657465278,-1530.0056071845888,-492.6027208213806,-777.0292768707276,-1987.1318366470337
30.0,980.0166115678717,-1237.2451286568617,-1517.9983051836066,-501.19817963790894,-790.3332640686035,-1979.8233856353759
40.0,983.6088139661359,-1249.3230226577223,-1505.9201336360923,-509.7702395477295,-803.6003538208008,-1972.4225046768188
50.0,987.1544628995164,-1261.342791697343,-1493.7716687981576,-518.3185045509339,-816.8299333648681,-1964.9295555038452
60.0,990.653406367221,-1273.303885553556,-1481.5534935089725,-526.8425811157226,-830.0213937683105,-1957.344908607483
70.0,994.105497053843,-1285.2057600099974,-1469.2661970622232,-535.3420782470703,-843.1741301879882,-1949.6689432067872
80.0,997.5105921888954,-1297.0478768685145,-1456.9103751008527,-543.8166075630188,-856.2875418090821,-1941.9020471115111
90.0,1000.8685536932221,-1308.8297041235412,-1444.4866294868834,-552.2657833824157,-869.3610320892334,-1934.04461668396
100.0,1004.1792481621662,-1320.550716039619,-1431.9955681793829,-560.6892227859497,-882.3940088348388,-1926.0970567398072
110.0,1007.4425468806925,-1332.2103932320335,-1419.4378050793962,-569.0865456886291,-895.3858843078614,-1918.0597804260253
120.0,1010.6583258430638,-1343.8082227607222,-1406.8139599512936,-577.4573749084473,-908.3360753173828,-1909.9332091751098
130.0,1013.8264657709417,-1355.3436982450753,-1394.1246582486967,-585.8013362541199,-921.2440033569336,-1901.7177725753784
140.0,1016.9468521406407,-1366.8163199244207,-1381.3705310082603,-594.1180585632325,-934.109094696045,-1893.4139082946776
150.0,1020.0193751768193,-1378.225594758346,-1368.5522146800222,-602.4071737976075,-946.9307804870606,-1885.0220619430543
160.0,1023.0439298766981,-1389.5710365153723,-1355.6703510560421,-610.6683171005249,-959.7084968566894,-1876.5426870346068
170.0,1026.0204160509525,-1400.8521658455572,-1342.7255870419533,-618.9011268463134,-972.4416850585937,-1867.9762448043823
180.0,1028.9487382450236,-1412.0685103419967,-1329.7185746186265,-627.1052447280883,-985.1297914581298,-1859.3232041625977
190.0,1031.828805861511,-1423.2196046592496,-1316.649970600056,-635.2803158035279,-997.7722677764892,-1850.584041534424
200.0,1034.6605330659038,-1434.3049905364696,-1303.5204365930351,-643.4259885597229,-1010.3685710449219,-1841.7592407989503
210.0,1037.4438388315266,-1445.3242169022594,-1290.3306387836456,-651.5419149818421,-1022.9181637725831,-1832.8492931289672
220.0,1040.1786469886488,-1456.2768399446495,-1277.0812478053012,-659.6277505912781,-1035.4205140686036,-1823.854696899414
230.0,1042.8648861150718,-1467.1624231292326,-1263.7729386148044,-667.6831545219421,-1047.8750956115723,-1814.7759575424195
240.0,1045.5024896507061,-1477.9805373299891,-1250.406390346556,-675.7077895622253,-1060.2813878631591,-1805.6135874786378
250.0,1048.0913958027504,-1488.7307608239437,-1236.9822861336816,-683.7013222198486,-1072.6388760528564,-1796.3681059188843
260.0,1050.631547603846,-1499.4126793907978,-1223.5013130125574,-691.6634227600098,-1084.9470513153076,-1787.0400388183593
270.0,1053.1228928889748,-1510.025886358804,-1209.9641617231337,-699.5937652702331,-1097.2054107666015,-1777.6299186935425
280.0,1055.5653842512015,-1520.5699826178636,-1196.3715265966248,-707.4920276947022,-1109.4134575195312,-1768.1382845077515
290.0,1057.9589790881666,-1531.0445767256938,-1182.7241053902019,-715.3578918991088,-1121.5707008361817,-1758.5656815567017
300.0,1060.303639565927,-1541.4492849191245,-1169.0225991477907,-723.1910437011719,-1133.6766561584473,-1748.9126613311767
310.0,1062.5993325962395,-1551.7837311500696,-1155.2677120347366,-730.9911729202271,-1145.7308451690674,-1739.179781364441
320.0,1064.846029849281,-1562.0475471530121,-1141.460151217318,-738.7579734230042,-1157.7327958831788,-1729.367605140686
330.0,1067.0437077071583,-1572.2403724505823,-1127.6006266881325,-746.4911431617737,-1169.682042678833,-1719.4767019195556
340.0,1069.1923472580213,-1582.361854397938,-1113.6898511163315,-754.1903842124939,-1181.578126373291,-1709.5076466064454
350.0,1071.2919342971147,-1592.41164823082,-1099.7285397118833,-761.8554028167724,-1193.4205942993165,-1699.4610196380615
360.0,1073.342459286329,-1602.389417069892,-1085.717410065217,-769.485909412384,-1205.2090003356934,-1689.3374068222047
370.0,1075.3439173329036,-1612.2948319459229,-1071.65718201623,-777.0816186676026,-1216.9429049530029,-1679.1373992156982
380.0,1077.2963081953146,-1622.1275718577392,-1057.5485774645217,-784.6422495269776,-1228.6218753204346,-1668.8615929641724
390.0,1079.1996361917406,-1631.8873237232688,-1043.39232027968,-792.1675252189636,-1240.245485244751,-1658.5105891799926
400.0,1081.0539102698035,-1641.5737824807502,-1029.1891360892498,-799.6571733131409,-1251.8133153533936,-1648.0849937896728
410.0,1082.859143886215,-1651.1866510230816,-1014.9397521936728,-807.1109257240296,-1263.3249530029298,-1637.585417404175
420.0,1084.6153550312094,-1660.725640249799,-1000.6448973639062,-814.5285187454224,-1274.779992401123,-1627.012475151062
430.0,1086.3225662149566,-1670.1904690936053,-986.3053017245255,-821.9096930847168,-1286.17803465271,-1616.366786567688
440.0,1087.9808043834487,-1679.580864474435,-971.9216966030169,-829.2541938705444,-1297.5186877288818,-1605.6489754257202
450.0,1089.5901009178076,-1688.896561336394,-957.4948143801768,-836.5617706832886,-1308.8015665435792,-1594.8596696014404
460.0,1091.1504916017345,-1698.1373026476358,-943.0253883440963,-843.8321775741578,-1320.0262929840087,-1583.999500930786
470.0,1092.662016580391,-1707.3028393761329,-928.5141525701341,-851.0651730728149,-1331.1924959106445,-1573.0691050796509
480.0,1094.1247203197177,-1716.3929305029055,-913.9618417406328,-858.2605202178955,-1342.299811203003,-1562.069121368408
490.0,1095.5386515995197,-1725.4073430294156,-899.3691910214618,-865.4179865684509,-1353.34788180542,-1551.0001926574707
500.0,1096.9038634292183,-1734.3458519191065,-884.7369359313851,-872.5373442039489,-1364.3363576812744,-1539.8629651870729
510.0,1098.2204130381886,-1743.2082401249772,-870.0658121982822,-879.6183697547913,-1375.2648958740235,-1528.658088447571
520.0,1099.488361832648,-1751.994298554733,-855.356555591303,-886.6608443946839,-1386.133160522461,-1517.3862150039672
530.0,1100.7077753678188,-1760.703826074896,-840.609901830035,-893.6645538597107,-1396.9408228759767,-1506.048000404358
540.0,1101.878723251765,-1769.336629451123,-825.8265864255126,-900.6292884559631,-1407.6875612487793,-1494.6441029891969
550.0,1103.0012791787128,-1777.8925233703515,-811.0073445466674,-907.5548430557251,-1418.3730611114502,-1483.175183784485
560.0,1104.0755208396859,-1786.3713303883276,-796.1529108824154,-914.4410171089172,-1428.997015045166,-1471.6419063339233
570.0,1105.1015298824295,-1794.7728809000198,-781.2640195289906,-921.2876146354675,-1439.5591227416992,-1460.0449365768432
580.0,1106.0793918517,-1803.0970131132183,-766.3414038345722,-928.0944442367554,-1450.059091003418,-1448.3849426803588
590.0,1107.0091962009208,-1811.3435730459007,-751.3857962973,-934.8613190917969,-1460.4966337890626,-1436.662594947815
600.0,1107.8910361756807,-1819.5124144467306,-736.3979284252046,-941.5880569534302,-1470.871472137451,-1424.878565635681
610.0,1108.7250088109472,-1827.6033987816293,-721.3785305991217,-948.2744801368714,-1481.1833342132568,-1413.0335288238525
620.0,1109.5112148684411,-1835.6163952027152,-706.3283319854457,-954.9204155273437,-1491.4319552764894,-1401.1281603088378
630.0,1110.2497587628634,-1843.5512804796865,-691.2480603717237,-961.525694568634,-1501.6170776519775,-1389.163137413025
640.0,1110.9407485661634,-1851.4079389852252,-676.138442084901,-968.0901532440186,-1511.7384507598877,-1377.1391389083863
650.0,1111.584295911768,-1859.1862626464472,-661.0002018534055,-974.6136320877075,-1521.7958310699462,-1365.0568448486329
660.0,1112.1805159800915,-1866.886150898082,-645.8340626749641,-981.0959761581421,-1531.7889821166991,-1352.9169364318848
670.0,1112.729527397311,-1874.5075106030413,-630.6407457459798,-987.5370350265503,-1541.717674407959,-1340.7200958862304
680.0,1113.2314522272006,-1882.050256054531,-615.4209703043553,-993.9366627731323,-1551.58168548584,-1328.4670063247681
690.0,1113.6864159021648,-1889.514308878538,-600.1754535803536,-1000.2947179603576,-1561.3807998352052,-1316.1583516540527
700.0,1114.094547187382,-1896.899598027665,-584.9049105830104,-1006.6110636291504,-1571.1148089447022,-1303.794816368103
710.0,1114.4559780943405,-1904.2060596721471,-569.6100541178002,-1012.8855672721863,-1580.7835111694335,-1291.377085510254
720.0,1114.7708438474062,-1911.4336371756872,-554.2915945932943,-1019.1181008148193,-1590.3867117767334,-1278.9058444824218
730.0,1115.039282822167,-1918.5822810328607,-538.950239959976,-1025.3085406074524,-1599.924222885132,-1266.3817789535522
740.0,1115.261436536902,-1925.6519488260124,-523.5866955992949,-1031.4567673950196,-1609.3958634796143,-1253.8055747451783
750.0,1115.4374495047416,-1932.6426051145331,-508.20166421562806,-1037.5626662902832,-1618.8014592895508,-1241.1779176635741
760.0,1115.5674692708683,-1939.554221422506,-492.79584575561387,-1043.6261267623902,-1628.1408428344726,-1228.4994934310912
770.0,1115.6516462966679,-1946.3867761574936,-477.36993732357735,-1049.6470426177978,-1637.4138533325195,-1215.7709875564576
780.0,1115.690133933172,-1953.1402545245733,-461.9246330544931,-1055.6253119468688,-1646.6203366851807,-1202.9930851898193
790.0,1115.6830883904377,-1959.8146485175364,-446.46062404330866,-1061.5608371315002,-1655.7601454772948,-1190.1664710464477
800.0,1115.6306685871018,-1966.4099567705912,-430.9785982828955,-1067.4535248031616,-1664.833138809204,-1177.2918292694092
810.0,1115.5330362228842,-1972.9261845562928,-415.4792405324566,-1073.3032858047486,-1673.8391824035646,-1164.3698433303832
820.0,1115.3903556196656,-1979.3633436810994,-399.96323226303923,-1079.110035182953,-1682.7781484527588,-1151.4011959075929
830.0,1115.202793726182,-1985.72145243751,-384.43125156797817,-1084.8736921463012,-1691.6499156341554,-1138.3865687942505
840.0,1114.9705200431379,-1992.000535518533,-368.88397309382816,-1090.5941800384521,-1700.4543690338135,-1125.326642791748
850.0,1114.6937065322122,-1998.2006239228738,-353.32206794332143,-1096.271426300049,-1709.1914000701904,-1112.2220975723267
860.0,1114.3725276419211,-2004.3217549348722,-337.7462036148568,-1101.9053624458313,-1717.8609065246583,-1099.0736116256714
870.0,1114.0071601750979,-2010.3639720025108,-322.1570439428333,-1107.4959240264893,-1726.4627924041747,-1085.8818621368407
880.0,1113.5977832683875,-2016.3273246868423,-306.5552489925168,-1113.0430505981444,-1734.996967941284,-1072.6475248718261
890.0,1113.1445783196234,-2022.211868571923,-290.9414750322056,-1118.546685688019,-1743.4633495025635,-1059.3712741088866
900.0,1112.6477289827303,-2028.0176652053308,-275.31637440849994,-1124.0067767486573,-1751.8618596038818,-1046.0537825088502
910.0,1112.1074210367478,-2033.7447820038228,-259.6805955624847,-1129.4232751426696,-1760.1924267578124,-1032.6957210693358
920.0,1111.5238423725623,-2039.3932921822059,-244.03478291089846,-1134.7961360931397,-1768.4549854736329,-1019.2977589950561
930.0,1110.897182936272,-2044.9632746722352,-228.37957679271545,-1140.1253186416625,-1776.649476196289,-1005.8605636138916
940.0,1110.2276346959954,-2050.454814059271,-212.71561342362244,-1145.4107856254577,-1784.7758452606201,-992.3848003082276
950.0,1109.51539152919,-2055.8680004788794,-197.04352483897063,-1150.6525036315918,-1792.834044784546,-978.8711324081421
960.0,1108.7606492231237,-2061.2029295493835,-181.3639388299696,-1155.8504429550171,-1800.8240326538087,-965.3202211151123
970.0,1107.9636053973554,-2066.4597023026377,-165.67747890986573,-1161.0045775718688,-1808.7457724456788,-951.7327254333496
980.0,1107.1244594477828,-2071.6384250741808,-149.98476425256405,-1166.1148850822449,-1816.599233352661,-938.1093020706177
990.0,1106.2434125120496,-2076.739209451639,-134.2864096342316,-1171.1813466873168,-1824.3843901519776,-924.4506053619385
1000.0,1105.3206673949617,-2081.762172183024,-118.58302541987645,-1176.20394713974,-1832.1012231140137,-910.7572872161866
1010.0,1104.3564285201794,-2086.7074350873904,-102.87521749575448,-1181.1826747055054,-1839.7497179412842,-897.0299970169067
1020.0,1103.3509019020012,-2091.575124989057,-87.16358721137105,-1186.1175211219788,-1847.329865737915,-883.2693815460206
1030.0,1102.3042950530069,-2096.365373620139,-71.44873139156051,-1191.0084815597534,-1854.8416628875732,-869.4760849456787
1040.0,1101.2168169930414,-2101.0783175660663,-55.731242247094514,-1195.8555545730592,-1862.2851110687257,-855.650748626709
1050.0,1100.0886781100403,-2105.7140981384073,-40.01170736174797,-1200.6587420692445,-1869.660217086792,-841.7940111846924
1060.0,1098.9200901928584,-2110.2728613392987,-24.29070967334113,-1205.4180492630005,-1876.9669928894043,-827.9065083847046
1070.0,1097.711266342003,-2114.754757752502,-8.56882741112134,-1210.1334846191405,-1884.2054554748536,-813.9888730545044
1080.0,1096.4624209337724,-2119.159942483362,7.153365923030767,-1214.805059841156,-1891.3756268310547,-800.0417350387573
1090.0,1095.1737695381219,-2123.488575041972,22.875301561643138,-1219.432789794922,-1898.4775338287354,-786.0657211456299
1100.0,1093.845528931809,-2127.7408193076326,38.596415547500946,-1224.0166924858092,-1905.5112082366943,-772.0614550704956
1110.0,1092.477916978761,-2131.916843408274,54.31614868992637,-1228.5567890167235,-1912.476686553955,-758.0295573730468
1120.0,1091.0711526513858,-2136.016819668835,70.03394665983413,-1233.0531035308838,-1919.374010040283,-743.9706453857422
1130.0,1089.6254559328459,-2140.040924510882,85.7492599578062,-1237.5056631774903,-1926.2032245788573,-729.885333190918
1140.0,1088.1410477730085,-2143.9893383728972,101.46154395348381,-1241.914498073578,-1932.9643806152344,-715.774231552124
1150.0,1086.6181500985488,-2147.862245657533,117.17025891962543,-1246.2796412467956,-1939.6575331573486,-701.6379478759766
1160.0,1085.0569856942545,-2151.65983460916,132.8748700026496,-1250.6011286010742,-1946.282741607666,-687.4770861740112
1170.0,1083.4577781930384,-2155.382297267928,148.5748472923497,-1254.878998878479,-1952.8400697631837,-673.2922469863892
1180.0,1081.820752031256,-2159.029829375424,164.26966579284203,-1259.1132936019897,-1959.329585723877,-659.0840273742676
1190.0,1080.1461324147692,-2162.6026303055646,179.95880546785077,-1263.304057041168,-1965.7513618469238,-644.8530208511353
1200.0,1078.434145235986,-2166.1009029642214,195.64175120723667,-1267.451336162567,-1972.1054746246339,-630.5998173675537
1210.0,1076.6850171023939,-2169.524853760925,211.31799289439735,-1271.5551805992127,-1978.3920047149659,-616.3250032501221
1220.0,1074.8989752064454,-2172.874692461,226.9870253703578,-1275.6156425857544,-1984.6110367584229,-602.0291611633301
1230.0,1073.076247359558,-2176.1506321713787,242.64834843205568,-1279.6327769355773,-1990.7626593933105,-587.7128701171875
1240.0,1071.2170618832602,-2179.3528892267104,258.3014668694587,-1283.6066409950256,-1996.846965133667,-573.3767053756713
1250.0,1069.3216476414543,-2182.4816831248595,273.94589045133057,-1287.5372945785523,-2002.864050354004,-559.0212384643555
1260.0,1067.3902339468982,-2185.53723646578,289.5811339465849,-1291.42479996109,-2008.8140151977539,-544.647037109375
1270.0,1065.423050545952,-2188.5197748533465,305.20671707948884,-1295.2692218017578,-2014.6969635009766,-530.2546652526855
1280.0,1063.4203275787515,-2191.429526835922,320.8221645751937,-1299.0706271209717,-2020.513002746582,-515.8446829833985
1290.0,1061.3822955142255,-2194.2667238303247,336.42700613813605,-1302.8290852622986,-2026.2622439727784,-501.417646522522
1300.0,1059.3091851456888,-2197.0316000253783,352.0207764342945,-1306.544667819977,-2031.9448017120362,-486.974108215332
1310.0,1057.201227554137,-2199.724392371648,367.60301512776334,-1310.2174486427307,-2037.5607939758302,-472.5146164855957
1320.0,1055.058654053915,-2202.3453404319166,383.1732668335238,-1313.8475037422181,-2043.1103421173095,-458.0397158279419
1330.0,1052.881696153521,-2204.894686372457,398.73108112007515,-1317.4349113006592,-2048.5935708007814,-443.54994679260255
1340.0,1050.6705855538378,-2207.3726748582053,414.2760125253954,-1320.9797515830994,-2054.0106079559328,-429.0458459472656
1350.0,1048.4255540597107,-2209.779552987595,429.8076205103233,-1324.4821069335937,-2059.361584655762,-414.5279458770752
1360.0,1046.1468336108787,-2212.115570243833,445.32546948416973,-1327.9420617103576,-2064.646635131836,-399.9967751617432
1370.0,1043.8346561905937,-2214.3809783937504,460.82912877287146,-1331.359702255249,-2069.865896636963,-385.4528583526611
1380.0,1041.4892538422903,-2216.5760314626423,476.31817260409264,-1334.7351168556213,-2075.0195094451906,-370.8967159881592
1390.0,1039.1108585764377,-2218.70098560861,491.7921801102343,-1338.0683956947328,-2080.1076167144774,-356.3288645324707
1400.0,1036.699702404725,-2220.756099120203,507.25073529138604,-1341.3596308250428,-2085.130364501953,-341.7498164215088
1410.0,1034.2560172933756,-2222.741632319291,522.6934270343951,-1344.6089161109924,-2090.087901687622,-327.16008000946044
1420.0,1031.7800350712757,-2224.657847480486,538.1198490531422,-1347.816347213745,-2094.9803798370363,-312.560159576416
1430.0,1029.2719875181886,-2226.5050088136713,553.5295999161824,-1350.982021522522,-2099.807953277588,-297.95055532836915
1440.0,1026.7321061844602,-2228.283382334576,568.9222829945849,-1354.1060381469727,-2104.570778869629,-283.33176335906984
1450.0,1024.1606225275839,-2229.9932358827105,584.2975064648007,-1357.1884978523253,-2109.26901612854,-268.7042756958008
1460.0,1021.5577677435933,-2231.6348389944346,599.6548832692881,-1360.2295030479431,-2113.9028270111085,-254.06858025360108
1470.0,1018.923772838058,-2233.2084628730763,614.9940311184204,-1363.2291577186584,-2118.472375961304,-239.4251608505249
1480.0,1016.2588685286581,-2234.714380315066,630.3145724648629,-1366.18756741333,-2122.977829788208,-224.77449718475341
1490.0,1013.5632852568328,-2236.152865664407,645.6161344628487,-1369.1048392028808,-2127.4193576354983,-210.1170648651123
1500.0,1010.8372531751519,-2237.5241947442073,660.8983489637883,-1371.9810816307067,-2131.797130935669,-195.45333539581299
1510.0,1008.0810020825867,-2238.8286448073923,676.1608524938384,-1374.8164046936035,-2136.11132333374,-180.78377616882324
1520.0,1005.294761441228,-2240.066494475998,691.4032862341704,-1377.6109197921753,-2140.3621106567384,-166.1088504714966
1530.0,1002.478760308936,-2241.2380236710583,706.6252959655861,-1380.364739704132,-2144.549670806885,-151.42901750183105
1540.0,999.6332273461717,-2242.343513577958,721.826532088873,-1383.0779785461425,-2148.674183761597,-136.74473234558104
1550.0,996.7583907872817,-2243.383246584942,737.0066495739197,-1385.7507517433166,-2152.7358314971925,-122.05644599914551
1560.0,993.854478437267,-2244.3575062388136,752.1653079331007,-1388.3831759872437,-2156.734797958374,-107.36460538482666
1570.0,990.9217175849396,-2245.2665771597594,767.3021711882798,-1390.9753692092895,-2160.671268936157,-92.66965333557128
1580.0,987.960335079617,-2246.110745037518,782.4169078862221,-1393.52745054245,-2164.545432128906,-77.97202860260009
1590.0,984.9705572277231,-2246.890296532023,797.5091910255245,-1396.0395402832032,-2168.357476989746,-63.272165870666505
1600.0,981.9526098000366,-2247.605519260899,812.5786980294772,-1398.5117598838806,-2172.1075947113036,-48.570495780944825
1610.0,978.9067180331306,-2248.2567017258084,827.6251107470954,-1400.9442318840026,-2175.7959781951904,-33.867444915771486
