sat1Name,LLO-2-2
sat1Smaj,3416.853
sat1Ecc,0.359146
sat1Inc,90.188
sat1RAAN,237.221
sat1ArgPer,292.43
sat1TrAnom,0
Time[EpSec],xF[km],yF[km],zF[km],xI[km],yI[km],zI[km]
0.0,956.1907057044281,-1160.0020172365423,-1592.1362625656864,-446.7507795982361,-706.0473512268067,-2024.034116065979
10.0,960.1237570578944,-1172.4977334055513,-1580.599593162931,-455.48867026901246,-719.5761954650878,-2017.3308622512818
20.0,964.0113118918464,-1184.9389080989006,-1568.9891167625678,-464.20529174041747,-733.0714388427734,-2010.5334084701537
30.0,967.8531950039022,-1197.3249621433272,-1557.3053810424906,-472.90023863220216,-746.5324537963867,-2003.6420792160034
40.0,971.6492356387573,-1209.6553218052704,-1545.5489406878678,-481.57310773468015,-759.9586161804199,-1996.6572080230712
50.0,975.3992675536166,-1221.9294189504465,-1533.7203572486574,-490.22349811172484,-773.3493054504395,-1989.5791373901368
60.0,979.1031290020117,-1234.1466911015727,-1521.820199057411,-498.8510111618042,-786.7039047088623,-1982.4082187118531
70.0,982.7606628393848,-1246.306581598849,-1509.84904108966,-507.4552507019043,-800.0218009185791,-1975.1448122177123
80.0,986.3717164506642,-1258.4085396588962,-1497.807464857693,-516.0358230476379,-813.3023849182129,-1967.7892868652343
90.0,989.9361418671007,-1270.4520204995515,-1485.6960582772404,-524.5923370742798,-826.5450516204834,-1960.3420202789307
100.0,993.4537957268556,-1282.4364854440526,-1473.5154155716853,-533.1244043121338,-839.7492000732422,-1952.8033986740113
110.0,996.9245393381075,-1294.3614020043522,-1461.2661371000306,-541.6316389961243,-852.9142336120606,-1945.173816734314
120.0,1000.3482386874579,-1306.2262440042389,-1448.948829291705,-550.113658164978,-866.0395599517823,-1937.4536775817871
130.0,1003.7247644458728,-1318.0304916273508,-1436.5641044428562,-558.5700816993714,-879.124591293335,-1929.6433926010131
140.0,1007.0539920073202,-1329.7736315623615,-1424.112580660602,-567.0005324249267,-892.1687444458008,-1921.7433814315796
150.0,1010.3358014793263,-1341.455157038309,-1411.5948816849784,-575.4046361541748,-905.17144090271,-1913.7540718078612
160.0,1013.5700777278142,-1353.074567965112,-1399.011636765388,-583.7820217781067,-918.1321069946289,-1905.6758994903564
170.0,1016.7567103523508,-1364.6313709631675,-1386.3634805223044,-592.1323213119507,-931.0501739349365,-1897.5093081359864
180.0,1019.895593767419,-1376.1250795040712,-1373.6510528195377,-600.4551699676514,-943.9250780029297,-1889.2547492370607
190.0,1022.9866270958723,-1387.5552139162185,-1360.8749986263458,-608.7502062225342,-956.7562605133056,-1880.9126819610597
200.0,1026.0297143072085,-1398.921301536166,-1348.0359678597722,-617.0170718727112,-969.5431680603027,-1872.4835730819702
210.0,1029.0247641135577,-1410.2228767278323,-1335.1346152748847,-625.2554121055603,-982.2852524871826,-1863.967896850586
220.0,1031.9716900368612,-1421.4594809759342,-1322.171600279871,-633.4648755493164,-994.9819710540771,-1855.3661348648072
230.0,1034.8704104197357,-1432.6306629527849,-1309.1475868423677,-641.645114326477,-1007.6327865142822,-1846.6787760009765
240.0,1037.7208483521927,-1443.7359785805395,-1296.0632433080602,-649.7957841377258,-1020.2371671600342,-1837.9063162384034
250.0,1040.5229317589651,-1454.7749910822963,-1282.9192422704493,-657.9165442771912,-1032.7945869598389,-1829.0492585754394
260.0,1043.2765933573485,-1465.7472710760408,-1269.7162604200375,-666.0070577201843,-1045.3045256347657,-1820.1081128997803
270.0,1045.9817706330393,-1476.6523965859155,-1256.4549784191572,-674.0669911575318,-1057.7664686889648,-1811.083395866394
280.0,1048.6384058685574,-1487.4899531301385,-1243.1360807143578,-682.0960150566101,-1070.1799075469971,-1801.9756307525636
290.0,1051.2464461384925,-1498.2595337604662,-1229.7602554207429,-690.0938036956787,-1082.5443396148682,-1792.7853473587036
300.0,1053.8058432391426,-1508.9607391017516,-1216.3281941877055,-698.0600352363587,-1094.859268295288,-1783.5130818710327
310.0,1056.3165537942289,-1519.5931774217354,-1202.84059198204,-705.9943917350769,-1107.1242031860352,-1774.1593767089844
320.0,1058.778539102752,-1530.1564646377428,-1189.2981470294885,-713.896559223175,-1119.3386599884034,-1764.7247804260253
330.0,1061.1917652568723,-1540.650224405894,-1175.7015606058972,-721.7662277297974,-1131.5021607208253,-1755.2098475723267
340.0,1063.556203025475,-1551.074088096659,-1162.0515368916826,-729.6030913200378,-1143.6142336730957,-1745.615138519287
350.0,1065.8718278952338,-1561.4276948862425,-1148.3487828535772,-737.4068481521606,-1155.6744135284423,-1735.9412193832397
360.0,1068.1386200337756,-1571.7106917495603,-1134.5940080774644,-745.1772004966735,-1167.6822413940429,-1726.188661857605
370.0,1070.3565642848587,-1581.9227335170174,-1120.7879245913255,-752.9138547897339,-1179.637264892578,-1716.3580430603026
380.0,1072.5256501156828,-1592.0634828626914,-1106.931246786118,-760.616521648407,-1191.5390381469726,-1706.4499454421998
390.0,1074.6458716140678,-1602.132610356917,-1093.024691197726,-768.2849159202576,-1203.387121887207,-1696.4649565963746
400.0,1076.7172274906632,-1612.1297945008948,-1079.0689763913074,-775.9187567176818,-1215.1810835113524,-1686.4036691589356
410.0,1078.739720992488,-1622.0547216804657,-1065.0648228106593,-783.5177674217224,-1226.9204970550536,-1676.2666806335449
420.0,1080.7133599568228,-1631.9070862736833,-1051.0129526270186,-791.0816757469178,-1238.6049433441162,-1666.0545932922364
430.0,1082.63815668716,-1641.6865905539898,-1036.9140895979217,-798.6102137298584,-1250.234009902954,-1655.7680139846802
440.0,1084.5141280212338,-1651.3929448018828,-1022.7689589102602,-806.1031177902222,-1261.8072911224365,-1645.4075540390015
450.0,1086.3412952423168,-1661.0258672423092,-1008.5782870427659,-813.5601287231445,-1273.3243882141114,-1634.973829093933
460.0,1088.1196840249295,-1670.5850840582648,-994.3428016323822,-820.9809917411804,-1284.784909225464,-1624.4674589614867
470.0,1089.8493244999502,-1680.070329436041,-980.0632313018001,-828.3654564857483,-1296.1884691772461,-1613.8890674972533
480.0,1091.5302511281932,-1689.4813455083035,-965.7403055330876,-835.7132770423889,-1307.5346899871827,-1603.2392824325561
490.0,1093.1625026810216,-1698.8178823760056,-951.3747545367768,-843.024211971283,-1318.823200515747,-1592.5187352523803
500.0,1094.7461222302816,-1708.0796980908517,-936.9673090864118,-850.2980243034363,-1330.0536366119384,-1581.7280610351563
510.0,1096.2811571257807,-1717.2665586666858,-922.5187004077162,-857.5344815635681,-1341.2256411437988,-1570.8678983459472
520.0,1097.7676589044736,-1726.3782380459147,-908.0296599936172,-864.7333557891845,-1352.3388639831544,-1559.9388890304565
530.0,1099.2056832795126,-1735.4145180875375,-893.5009195279958,-871.894423526764,-1363.392962020874,-1548.9416781387329
540.0,1100.595290110173,-1744.375188561342,-878.9332106915526,-879.01746585083,-1374.3875992126466,-1537.8769137344361
550.0,1101.9365433289775,-1753.2600471005728,-864.3272650806928,-886.1022683563233,-1385.3224465332032,-1526.7452467880248
560.0,1103.229510950455,-1762.0688992318953,-849.683814016859,-893.1486211891174,-1396.1971820678712,-1515.5473310089112
570.0,1104.4742649626005,-1770.8015582902717,-835.0035884619551,-900.156319026947,-1407.0114909210206,-1504.2838227157592
580.0,1105.670881344511,-1779.4578454449697,-820.2873188491461,-907.1251610946655,-1417.765065307617,-1492.9553806915283
590.0,1106.8194399738243,-1788.037589623244,-805.5357349923138,-914.0549511528016,-1428.4576044769287,-1481.5626660537719
600.0,1107.9200246303858,-1796.5406275321998,-790.7495659225906,-920.945497516632,-1439.0888147888184,-1470.10634210968
610.0,1108.972722891264,-1804.9668035694065,-775.9295398038697,-927.7966130332946,-1449.6584096221925,-1458.5870742263794
620.0,1109.9776261188126,-1813.3159698210263,-761.0763837471932,-934.6081150894165,-1460.1661094360352,-1447.0055296554565
630.0,1110.9348294286547,-1821.5879860352627,-746.1908237460582,-941.3798256111145,-1470.6116417541505,-1435.362377456665
640.0,1111.8444315883626,-1829.7827195402695,-731.2735845308473,-948.1115710449219,-1480.994741104126,-1423.6582883148194
650.0,1112.7065350310825,-1837.9000452507748,-716.3253894468429,-954.803182357788,-1491.3151490783691,-1411.8939344329833
660.0,1113.5212457439268,-1845.939845579328,-701.3469603483426,-961.4544950256347,-1501.5726142425538,-1400.0699893798828
670.0,1114.288673290255,-1853.9020104410245,-686.3390174497806,-968.065349029541,-1511.766892211914,-1388.187127960205
680.0,1115.0089306813263,-1861.7864371561732,-671.3022792741001,-974.6355888290406,-1521.8977455291747,-1376.246026107788
690.0,1115.6821343633221,-1869.5930304209187,-656.2374624859173,-981.1650633659362,-1531.9649436950683,-1364.2473607177735
700.0,1116.308404184756,-1877.321702287727,-641.1452817873758,-987.653626045227,-1541.9682631835938,-1352.191809539795
710.0,1116.8878633075665,-1884.9723720527893,-626.0264498466133,-994.1011347084045,-1551.9074873352051,-1340.0800510559081
720.0,1117.4206381784818,-1892.544966262966,-610.8816771532973,-1000.5074516372681,-1561.7824064025879,-1327.9127643432616
730.0,1117.906858445367,-1900.039418607474,-595.7116719343798,-1006.8724435195923,-1571.5928174591065,-1315.690628944397
740.0,1118.3466569574232,-1907.4556698984295,-580.5171400511159,-1013.1959814338684,-1581.3385244293213,-1303.4143247680663
750.0,1118.7401696615345,-1914.7936679960906,-565.2987848675963,-1019.4779408302308,-1591.019338027954,-1291.0845319213868
760.0,1119.0875355594987,-1922.053367743348,-550.0573072179333,-1025.7182015151977,-1600.6350756988525,-1278.7019306488037
770.0,1119.3888966850318,-1929.234730927107,-534.7934052471824,-1031.9166476211549,-1610.1855616455077,-1266.267201171875
780.0,1119.6443980060037,-1936.3377261896037,-519.5077743338251,-1038.0731675872803,-1619.670626739502,-1253.7810235671998
790.0,1119.8541874043942,-1943.3623289815664,-504.2011070327618,-1044.1876541290283,-1629.090108505249,-1241.244077697754
800.0,1120.0184155798815,-1950.3085214862774,-488.8740929365649,-1050.2600042304994,-1638.44385105896,-1228.6570430374145
810.0,1120.137236046135,-1957.17629255396,-473.5274186259997,-1056.2901190910338,-1647.7317050933839,-1216.0205986099243
820.0,1120.2108050593263,-1963.965637659437,-458.1617675547388,-1062.2779041252136,-1656.95352784729,-1203.3354228515625
830.0,1120.239281513454,-1970.6765587732534,-442.7778199912448,-1068.2232689094544,-1666.1091829833983,-1190.602193496704
840.0,1120.2228269783411,-1977.3090643725748,-427.37625290515285,-1074.126127178192,-1675.198540664673,-1177.8215874862672
850.0,1120.1616055404793,-1983.8631692966835,-411.95773994636687,-1079.9863967781066,-1684.2214773712158,-1164.9942808685303
860.0,1120.0557838567238,-1990.3388947283452,-396.5229512839537,-1085.803999633789,-1693.1778759918213,-1152.1209486618043
870.0,1119.9055310071226,-1996.7362680915107,-381.0725536210928,-1091.578861732483,-1702.067625656128,-1139.2022648010254
880.0,1119.711018468523,-2003.0553229827144,-365.6072100549282,-1097.3109130821229,-1710.8906217346191,-1126.2389019851685
890.0,1119.4724200879957,-2009.2960991137293,-350.1275800253822,-1103.0000876808167,-1719.6467658081056,-1113.2315316085815
900.0,1119.189912007878,-2015.4586422104937,-334.6343192734566,-1108.6463234710693,-1728.335965576172,-1100.180823677063
910.0,1118.8636725910665,-2021.5430039601881,-319.1280797460183,-1114.2495623321533,-1736.9581348114014,-1087.087446685791
920.0,1118.4938823872665,-2027.5492419149646,-303.6095095228677,-1119.8097500190736,-1745.5131933135985,-1073.9520675201416
930.0,1118.0807241139144,-2033.4774194525903,-288.0792527737531,-1125.3268361358644,-1754.0010668945313,-1060.7753514022827
940.0,1117.62438250997,-2039.3276056424152,-272.53794971002566,-1130.8007741127014,-1762.421687210083,-1047.557961769104
950.0,1117.1250443756508,-2045.0998752185517,-256.9862364991802,-1136.231521144867,-1770.774991821289,-1034.3005602035523
960.0,1116.5828984552786,-2050.794308471032,-241.42474522587028,-1141.6190381774902,-1779.0609240570068,-1021.0038063354492
970.0,1115.9981354220588,-2056.410991183485,-225.85410383538016,-1146.9632898521422,-1787.2794329986573,-1007.6683577728271
980.0,1115.3709478151804,-2061.9500145499555,-210.2749360517651,-1152.2642444763183,-1795.4304734191894,-994.2948699874878
990.0,1114.7015299678621,-2067.4114750884087,-194.68786139814043,-1157.5218739891052,-1803.5140056762696,-980.8839962921143
1000.0,1113.9900779827335,-2072.795474568517,-179.09349507095303,-1162.7361539039612,-1811.5299957122802,-967.4363877029419
1010.0,1113.2367896563815,-2078.102119929674,-163.49244794584996,-1167.9070632896423,-1819.4784149475097,-953.9526929016113
1020.0,1112.4418644367208,-2083.331523206186,-147.88532651844562,-1173.034584728241,-1827.359240234375,-940.4335581512452
1030.0,1111.6055033861776,-2088.483801435634,-132.27273283843695,-1178.1187042541503,-1835.1724538116455,-926.879627204895
1040.0,1110.7279090857355,-2093.5590765821275,-116.65526453530707,-1183.1594113388062,-1842.9180431823731,-913.2915412826538
1050.0,1109.8092856594862,-2098.5574754813206,-101.0335146750724,-1188.1566988372804,-1850.596001159668,-899.6699389343262
1060.0,1108.8498386442477,-2103.4791297098054,-85.40807184383809,-1193.1105629463195,-1858.206325668335,-886.0154560470581
1070.0,1107.849774969608,-2108.3241755407057,-69.779520029958,-1198.0210031661986,-1865.749019760132,-872.3287257232666
1080.0,1106.8093029525737,-2113.0927538667315,-54.14843860711425,-1202.8880222587586,-1873.2240915679931,-858.6103782424926
1090.0,1105.728632180484,-2117.7850101018385,-38.51540231826995,-1207.7116262054444,-1880.63155418396,-844.8610409927368
1100.0,1104.6079734716288,-2122.4010940918706,-22.88098126332881,-1212.4918241653443,-1887.9714255828858,-831.0813384246826
1110.0,1103.447538897216,-2126.9411600750113,-7.245740817952785,-1217.2286284294128,-1895.2437286529541,-817.2718919754028
1120.0,1102.247541648573,-2131.4053665636757,8.389758344042114,-1221.9220543861388,-1902.448491027832,-803.433320022583
1130.0,1101.008196026149,-2135.79387626972,24.024960287205992,-1226.572120464325,-1909.5857450561523,-789.5662378311157
1140.0,1099.7297173997363,-2140.106856049927,39.65931385301403,-1231.1788481140136,-1916.6555277557372,-775.6712574920655
1150.0,1098.412322152507,-2144.344476799332,55.292272658779865,-1235.7422617378236,-1923.657880722046,-761.7489878845215
1160.0,1097.0562276156081,-2148.5069133655347,70.9232951114684,-1240.2623886604308,-1930.592850036621,-747.8000346221924
1170.0,1095.661652082935,-2152.5943445273624,86.55184447510122,-1244.739259098053,-1937.4604862976075,-733.8249999923706
1180.0,1094.2288147047884,-2156.6069528450057,102.17738879943116,-1249.172906085968,-1944.2608444366456,-719.8244829559326
1190.0,1092.7579354511313,-2160.5449246101157,117.79940102662064,-1253.5633654632568,-1950.9939837036134,-705.7990790252686
1200.0,1091.2492351094852,-2164.4084497876147,133.41735893733718,-1257.9106758155822,-1957.6599676208496,-691.7493803024292
1210.0,1089.702935199753,-2168.19772190779,149.03074519384373,-1262.2148784370422,-1964.2588638763427,-677.6759753875732
1220.0,1088.1192579473025,-2171.912938009321,164.63904733577067,-1266.476017288208,-1970.790744277954,-663.5794493637085
1230.0,1086.4984262687058,-2175.55429856289,180.24175779688045,-1270.6941389465333,-1977.2556847076416,-649.4603837585449
1240.0,1084.8406636543343,-2179.122007366338,195.83837390840205,-1274.8692925720215,-1983.653764984131,-635.3193564834595
1250.0,1083.1461942265405,-2182.6162715184346,211.42839790264856,-1279.0015298614503,-1989.9850688934325,-621.1569418411254
1260.0,1081.4152426062738,-2186.03730128856,227.01133690448466,-1283.090905002594,-1996.249684020996,-606.9737104644776
1270.0,1079.6480339429704,-2189.3853100940983,242.58670297749214,-1287.1374746398926,-2002.4477017822267,-592.7702292785644
1280.0,1077.84479385468,-2192.6605143949005,258.1540130692581,-1291.1412978210449,-2008.579217300415,-578.5470615081787
1290.0,1076.0057483567161,-2195.863133621135,273.71278903806336,-1295.1024359664916,-2014.6443293304444,-564.3047666168213
1300.0,1074.131123862331,-2198.9933901108584,289.2625576614373,-1299.020952823639,-2020.6431402282715,-550.0439002838135
1310.0,1072.2211471622297,-2202.051509048141,304.80285062471637,-1302.8969144172668,-2026.5757559051513,-535.7650143966674
1320.0,1070.2760453138858,-2205.0377183494707,320.3332045045397,-1306.7303890190124,-2032.4422856750489,-521.4686570053101
1330.0,1068.2960456882897,-2207.9522486460605,335.85316076542074,-1310.521447101593,-2038.2428422851563,-507.1553723373413
1340.0,1066.2813758838615,-2210.7953331799145,351.3622657886567,-1314.2701612968444,-2043.9775418090821,-492.8257007217407
1350.0,1064.232263709091,-2213.5672077424274,366.86007083415666,-1317.9766063575744,-2049.6465035858155,-478.48017860412597
1360.0,1062.1489371403968,-2216.2681105993493,382.3461320103157,-1321.6408591079712,-2055.2498501434325,-464.11933854675294
1370.0,1060.0316242888898,-2218.8982824287846,397.82001031240856,-1325.2629984169007,-2060.7877071533203,-449.74370916748046
1380.0,1057.8805533926209,-2221.457966276426,413.2812716030289,-1328.8431051559448,-2066.260203399658,-435.3538151473999
1390.0,1055.6959527485963,-2223.947407433516,428.729486558446,-1332.3812621383668,-2071.66747064209,-420.950177230835
1400.0,1053.4780507037635,-2226.366853432215,444.16423072370685,-1335.8775541152954,-2077.0096436309814,-406.533312171936
1410.0,1051.2270755942343,-2228.716553919479,459.58508443752055,-1339.3320676994324,-2082.286859970093,-392.10373275756837
1420.0,1048.9432557527398,-2230.996760646057,474.99163283915243,-1342.744891357422,-2087.4992601165773,-377.6619477996826
1430.0,1046.626819473036,-2233.207727385611,490.38346587215665,-1346.1161153526307,-2092.646987319946,-363.2084621047974
1440.0,1044.277994960771,-2235.3497098459948,505.76017826974595,-1349.445831703186,-2097.7301875305175,-348.7437764511108
1450.0,1041.897010289848,-2237.4229656348775,521.1213694760271,-1352.7341341667175,-2102.74900932312,-334.2683876419067
1460.0,1039.4840934252907,-2239.427754182725,536.4666437080176,-1355.9811181716918,-2107.7036038970946,-319.78278843688963
1470.0,1037.0394721660148,-2241.364336710468,551.7956099053289,-1359.1868808135987,-2112.594125,-305.28746757507326
1480.0,1034.5633741065847,-2243.232976125293,567.1078817008708,-1362.3515207862854,-2117.4207288360594,-290.7829097671509
1490.0,1032.0560266295465,-2245.0339369894605,582.4030774017651,-1365.4751383628845,-2122.1835740356446,-276.269595703125
1500.0,1029.5176568799184,-2246.7674854614197,597.6808199993746,-1368.5578353614808,-2126.882821609497,-261.74800202178955
1510.0,1026.9484917165244,-2248.4338892217356,612.9407371051607,-1371.59971509552,-2131.518634857178,-247.21860134124756
1520.0,1024.3487577194167,-2250.0334174372897,628.1824609584813,-1374.6008823509217,-2136.0911793518067,-232.68186224365235
1530.0,1021.7186811378544,-2251.5663406823173,643.4056283908072,-1377.5614433441162,-2140.6006228485107,-218.13824927520753
1540.0,1019.0584878802226,-2253.0329308940504,658.609880813289,-1380.4815056838988,-2145.047135253906,-203.58822294616698
1550.0,1016.3684034912737,-2254.433461328246,673.7948641719296,-1383.3611783523559,-2149.4308885650635,-189.03223975372313
1560.0,1013.6486531406196,-2255.7682064952332,688.9602289630369,-1386.2005716514586,-2153.752056838989,-174.47075215148925
1570.0,1010.8994615642285,-2257.0374420889293,704.1056301636562,-1388.9997971725463,-2158.0108160858153,-159.9042085800171
1580.0,1008.1210530809204,-2258.241444972775,719.2307272241947,-1391.758967781067,-2162.207344268799,-145.33305347442626
1590.0,1005.3136515327873,-2259.380493083851,734.3351840605272,-1394.4781975593567,-2166.3418212127685,-130.75772723388673
1600.0,1002.4774803108387,-2260.4548654238756,749.4186689843903,-1397.157601791382,-2170.4144285888674,-116.1786662902832
1610.0,999.6127623199337,-2261.464841984343,764.4808547413044,-1399.797296913147,-2174.4253498687744,-101.59630304718017
