sat1Name,LLO-3-0
sat1Smaj,3416.853
sat1Ecc,0.359146
sat1Inc,90.188
sat1RAAN,237.721
sat1ArgPer,291.43
sat1TrAnom,0
Time[EpSec],xF[km],yF[km],zF[km],xI[km],yI[km],zI[km]
0.0,953.3598563494728,-1129.2062846636718,-1615.7974425118985,-421.60010564804077,-679.9711546478271,-2038.307092666626
10.0,957.5494112430779,-1141.7974173375153,-1604.456736836979,-430.27998795700074,-693.6730646057129,-2031.8859340515137
20.0,961.6935847173439,-1154.3354557441207,-1593.041110143252,-438.9397781944275,-707.3425832672119,-2025.3698958206178
30.0,965.7921894947445,-1166.819816074675,-1581.5511010958865,-447.5790735397339,-720.9790748291016,-2018.7592893753051
40.0,969.8450427493781,-1179.2499198471278,-1569.9872554748265,-456.1974732437134,-734.5819068145752,-2012.0544352340698
50.0,973.8519661496267,-1191.625194011259,-1558.3501260363778,-464.7945786972046,-748.1504502105713,-2005.255662940979
60.0,977.8127858711475,-1203.9450710561014,-1546.6402724341517,-473.36999351882935,-761.6840795593262,-1998.3633110198975
70.0,981.7273326703444,-1216.2089891419034,-1534.8582610970643,-481.9233236312866,-775.1821731262207,-1991.377726913452
80.0,985.5954418736269,-1228.416392182751,-1523.004665080165,-490.4541773300171,-788.644112991333,-1984.299266860962
90.0,989.4169534167978,-1240.566729951719,-1511.0800639868978,-498.9621653671265,-802.06928515625,-1977.1282958602906
100.0,993.1917118751093,-1252.6594581908791,-1499.0850438237135,-507.44690101623536,-815.4570796813965,-1969.8651875686646
110.0,996.9195664963212,-1264.6940387222878,-1487.020196881178,-515.9080001602173,-828.8068908081054,-1962.5103242263795
120.0,1000.6003712182173,-1276.6699395124717,-1474.8861216134878,-524.3450813369751,-842.1181170501709,-1955.0640965652465
130.0,1004.2339846743175,-1288.5866348027018,-1462.6834224980203,-532.7577658462525,-855.390161315918,-1947.5269037094117
140.0,1007.8202702211714,-1300.443605169474,-1450.4127099291156,-541.1456777877808,-868.6224309997558,-1939.89915309906
150.0,1011.3590959856532,-1312.240337640599,-1438.0746000595009,-549.5084441413879,-881.8143381347656,-1932.181260383606
160.0,1014.8503348506006,-1323.9763257810444,-1425.6697146849865,-557.8456948432922,-894.9652994689941,-1924.3736493301392
170.0,1018.2938644572002,-1335.6510697486904,-1413.198681115535,-566.1570628395081,-908.074736541748,-1916.4767517166138
180.0,1021.6895672623837,-1347.2640764193948,-1400.6621320180832,-574.4421841583252,-921.1420758514404,-1908.491007232666
190.0,1025.0373305151809,-1358.8148594312631,-1388.0607052991693,-582.7006979675293,-934.1667489013672,-1900.4168633728027
200.0,1028.3370463011881,-1370.3029393047022,-1375.3950439534854,-590.9322466506958,-947.1481923522949,-1892.2547753372191
210.0,1031.5886114783991,-1381.7278434455159,-1362.6657959361555,-599.1364758453369,-960.0858480224609,-1884.0052058944702
220.0,1034.7919277770536,-1393.0891063044155,-1349.8736140089343,-607.3130345306397,-972.9791631011963,-1875.6686253051757
230.0,1037.9469017484937,-1404.3862693815943,-1337.0191555996935,-615.461575061798,-985.8275901641846,-1867.245511177063
240.0,1041.053444776998,-1415.6188813254093,-1324.1030826826895,-623.581753238678,-998.6305872802734,-1858.7363483810425
250.0,1044.1114730705794,-1426.7864979762724,-1311.1260616001243,-631.6732283668518,-1011.3876180877686,-1850.1416288909911
260.0,1047.1209076957928,-1437.8886824505742,-1298.0887629372276,-639.7356632957459,-1024.0981519165039,-1841.4618516998291
270.0,1050.0816745401328,-1448.9250051834415,-1284.991861369397,-647.7687244873047,-1036.761663833618,-1832.6975226745606
280.0,1052.9937043288055,-1459.8950439884006,-1271.836035534741,-655.7720820579528,-1049.3776347351074,-1823.8491544570923
290.0,1055.8569326189388,-1470.7983841079604,-1258.6219678501336,-663.7454098243713,-1061.9455514373778,-1814.917266304016
300.0,1058.6712997933757,-1481.6346182844363,-1245.3503443890959,-671.6883853683472,-1074.46490675354,-1805.9023839874267
310.0,1061.436751002514,-1492.4033467568956,-1232.0218547541547,-679.600690071106,-1086.9351994934082,-1796.8050396575927
320.0,1064.153236258856,-1503.104177372586,-1218.637191860537,-687.4820091552734,-1099.355934677124,-1787.625771697998
330.0,1066.8207103363322,-1513.7367255796576,-1205.1970518737053,-695.3320317382812,-1111.7266234741212,-1778.365124633789
340.0,1069.4391327619207,-1524.300614464019,-1191.702134004495,-703.1504508666992,-1124.0467832946777,-1769.0236489486695
350.0,1072.008467877656,-1534.7954748439736,-1178.1531403582333,-710.9369635658264,-1136.315937942505,-1759.6019009857177
360.0,1074.528684722634,-1545.220945223182,-1164.5507758292883,-718.691270866394,-1148.533617538452,-1750.1004428024291
370.0,1076.9997570948146,-1555.5766718794057,-1150.895747902142,-726.4130778503418,-1160.6993586883546,-1740.5198420257568
380.0,1079.421663502817,-1565.862308876955,-1137.1887665320262,-734.1020936851502,-1172.812704498291,-1730.8606717300415
390.0,1081.7943871073137,-1576.0775180551166,-1123.4305440104652,-741.7580316467286,-1184.8732045745849,-1721.1235102920532
400.0,1084.1179157906356,-1586.2219691293762,-1109.6217947532434,-749.3806091766357,-1196.8804152069092,-1711.3089412384033
410.0,1086.3922420417477,-1596.295339634008,-1095.7632352364212,-756.9695478897095,-1208.8338992767333,-1701.417553138733
420.0,1088.6173629682883,-1606.297314961813,-1081.8555837927966,-764.5245736045838,-1220.7332263641358,-1691.4499394302368
430.0,1090.793280294123,-1616.2275884149872,-1067.899560468953,-772.04541639328,-1232.5779728240966,-1681.4066982955933
440.0,1092.9200002815894,-1626.0858611553472,-1053.895886922836,-779.5318105812073,-1244.3677217407226,-1671.288432533264
450.0,1094.9975337643489,-1635.8718422558443,-1039.8452862016054,-786.9834947738648,-1256.1020630645753,-1661.0957493743897
460.0,1097.0258960432288,-1645.5852486938447,-1025.7484826792406,-794.4002119064331,-1267.7805935516358,-1650.8292603912353
470.0,1099.0051069125595,-1655.2258053399823,-1011.6062018527314,-801.7817092285156,-1279.4029168548584,-1640.489581314087
480.0,1100.9351906210566,-1664.7932449919856,-997.4191702307552,-809.1277383499146,-1290.9686435546876,-1630.0773319244386
490.0,1102.8161758133544,-1674.2873083353213,-983.1881151644462,-816.4380552406311,-1302.4773911590576,-1619.5931358718872
500.0,1104.6480955064433,-1683.707743959075,-968.9137647363995,-823.712420261383,-1313.9287841339112,-1609.0376205673217
510.0,1106.4309870725433,-1693.0543083468717,-954.5968475950617,-830.9505981674195,-1325.3224539489745,-1598.411417022705
520.0,1108.1648921581973,-1702.3267658558518,-940.2380928460068,-838.1523581314087,-1336.6580390472411,-1587.7151597213744
530.0,1109.8498566883713,-1711.5248887157477,-925.8382298606678,-845.3174737434388,-1347.9351849212646,-1576.949486442566
540.0,1111.4859308212751,-1720.6484570120308,-911.3979881972206,-852.4457230262757,-1359.1535440979003,-1566.1150381698608
550.0,1113.073168889723,-1729.6972586676036,-896.9180974252869,-859.5368884468079,-1370.3127761535645,-1555.212458908081
560.0,1114.6116293805019,-1738.671089424934,-882.3992870142711,-866.5907569198608,-1381.4125477294922,-1544.2423955688478
570.0,1116.1013748523678,-1747.569752803172,-867.8422861968302,-873.6071198120118,-1392.4525325012207,-1533.2054978103638
580.0,1117.5424719336554,-1756.3930601029792,-853.2478238114695,-880.5857729492187,-1403.4324112396241,-1522.102417892456
590.0,1118.9349913097913,-1765.1408303891692,-838.6166282121884,-887.5265166130066,-1414.3518718261719,-1510.933810585022
600.0,1120.279007559493,-1773.8128903906115,-823.9494271245521,-894.429155544281,-1425.2106091308594,-1499.700332962036
610.0,1121.57459926185,-1782.4090745727115,-809.2469474841324,-901.2934989471436,-1436.0083251953124,-1488.4026443023681
620.0,1122.8218488095022,-1790.9292250114736,-794.509915372499,-908.1193604812622,-1446.7447290496825,-1477.0414059448242
630.0,1124.0208424725379,-1799.373191419961,-779.7390558579428,-914.9065582580566,-1457.4195368347168,-1465.6172811660767
640.0,1125.1716702678618,-1807.7408310710398,-764.9350928752424,-921.6549148406982,-1468.032471710205,-1454.1309350128174
650.0,1126.2744259788776,-1816.0320087943064,-750.0987491039189,-928.364257232666,-1478.5832639160155,-1442.5830341949463
660.0,1127.3292070634966,-1824.2465969036252,-735.2307458435848,-935.0344168701172,-1489.0716507110596,-1430.974246925354
670.0,1128.3361145921035,-1832.3844751512638,-720.3318029468621,-941.6652296180725,-1499.4973763275148,-1419.305242828369
680.0,1129.2952532658232,-1840.4455307406517,-705.4026386095793,-948.2565357627868,-1509.8601920776366,-1407.5766927566528
690.0,1130.2067312676925,-1848.4296581805124,-690.4439693764523,-954.8081799850464,-1520.1598561553956,-1395.789268714905
700.0,1131.070660318645,-1856.3367593354483,-675.4565099079335,-961.3200113563538,-1530.3961338043214,-1383.9436436767578
710.0,1131.887155535669,-1864.1667433130513,-660.4409729595897,-967.7918833389282,-1540.5687971496582,-1372.040491493225
720.0,1132.6563354320338,-1871.919526430616,-645.3980692457327,-974.2236537399292,-1550.6776252441407,-1360.0804867630004
730.0,1133.378321826896,-1879.5950321651023,-630.3285073353665,-980.6151847305298,-1560.722404006958,-1348.0643046951293
740.0,1134.0532398581622,-1887.1931910914432,-615.2329935218794,-986.9663427886962,-1570.7029262542724,-1335.992620979309
750.0,1134.681217816085,-1894.713940824881,-600.1122317831669,-993.2769987258911,-1580.6189915618897,-1323.8661116867065
760.0,1135.2623872233396,-1902.1572259751838,-584.9669236281413,-999.5470276260376,-1590.4704063568115,-1311.6854531402587
770.0,1135.7968826881029,-1909.5229980726172,-569.797767996341,-1005.7763088493347,-1600.2569838104248,-1299.451321762085
780.0,1136.2848418819317,-1916.8112155140104,-554.6054612208458,-1011.9647260017395,-1609.9785438079834,-1287.1643940200806
790.0,1136.7264054822488,-1924.0218434990827,-539.3906968723912,-1018.1121669120788,-1619.6349129333496,-1274.8253462524415
800.0,1137.1217171109954,-1931.1548539696882,-524.1541657124484,-1024.2185236167907,-1629.225924407959,-1262.4348545913697
810.0,1137.4709232821424,-1938.2102255297846,-508.8965555646271,-1030.2836923217774,-1638.7514180603027,-1249.9935948104858
820.0,1137.7741733598227,-1945.1879434051984,-493.61855126317056,-1036.307573387146,-1648.21124029541,-1237.5022422561647
830.0,1138.0316195009323,-1952.0879993612148,-478.32083455133125,-1042.2900712890626,-1657.6052440490723,-1224.9614717178345
840.0,1138.2434165837187,-1958.9103916324118,-463.0040839991935,-1048.2310946044922,-1666.9332887268067,-1212.3719573135377
850.0,1138.4097221564793,-1965.65512486644,-447.66897491714474,-1054.130555984497,-1676.19524017334,-1199.7343723831177
860.0,1138.5306963981022,-1972.3222100320318,-432.31617930967514,-1059.9883721046447,-1685.3909706115724,-1187.0493894119263
870.0,1138.606502051718,-1978.9116643768366,-416.94636573319394,-1065.804463661194,-1694.5203586273194,-1174.3176798706054
880.0,1138.6373043563674,-1985.4235113274447,-401.56019930958456,-1071.5787553215027,-1703.5832890625,-1161.5399141845703
890.0,1138.6232710161537,-1991.857780431659,-386.1583415857399,-1077.3111756973267,-1712.5796530151367,-1148.716761581421
900.0,1138.5645721516255,-1998.214507300624,-370.7414504809801,-1083.00165732193,-1721.509347793579,-1135.8488900146485
910.0,1138.461380189586,-2004.4937334851802,-355.3101802288588,-1088.6501366004943,-1730.3722767944337,-1122.9369660491943
920.0,1138.3138698915584,-2010.695506472642,-339.86518131067487,-1094.2565537948608,-1739.1683495483398,-1109.9816548080444
930.0,1138.1222182240124,-2016.8198795458588,-324.40710037496814,-1099.8208529701233,-1747.8974815826416,-1096.9836198272706
940.0,1137.8866043421485,-2022.8669117353354,-308.9365802072531,-1105.3429819755554,-1756.559594390869,-1083.943523010254
950.0,1137.607209531162,-2028.836667757769,-293.45425963667475,-1110.8228924064636,-1765.1546154022217,-1070.8620245132447
960.0,1137.284217148014,-2034.7292179034223,-277.96077349439554,-1116.2605395545959,-1773.6824778900148,-1057.739782661438
970.0,1136.9178125644044,-2040.544637993168,-262.4567525749513,-1121.6558823928833,-1782.1431209259033,-1044.5774538879396
980.0,1136.5081831231996,-2046.283009279897,-246.9428235349527,-1127.0088835220338,-1790.5364893341064,-1031.3756926040649
990.0,1136.0555180696697,-2051.944418372526,-231.41960889329482,-1132.3195091438292,-1798.8625335998536,-1018.1351511611939
1000.0,1135.5600085296185,-2057.5289571714497,-215.88772696052433,-1137.587729007721,-1807.121209854126,-1004.8564797668457
1010.0,1135.021847393891,-2063.0367227688603,-200.34779177985155,-1142.8135163993836,-1815.3124797515868,-991.5403263702393
1020.0,1134.4412293571127,-2068.467817394185,-184.80041310162073,-1147.996848072052,-1823.4363104858398,-978.1873366394043
1030.0,1133.8183507769513,-2073.8223483071442,-169.24619632324215,-1153.1377042274476,-1831.4926746520996,-964.7981538391114
1040.0,1133.1534096737314,-2079.1004277434454,-153.68574246071245,-1158.2360684700013,-1839.4815502319336,-951.3734187927246
1050.0,1132.4466056717959,-2084.302172823807,-138.11964810807072,-1163.2919277648925,-1847.4029205169677,-937.9137698059083
1060.0,1131.6981399446238,-2089.4277054761824,-122.54850538382283,-1168.305272403717,-1855.2567740478516,-924.4198425827026
1070.0,1130.908215136326,-2094.4771523484233,-106.9729019174428,-1173.2760959587097,-1863.043104522705,-910.8922701721192
1080.0,1130.0770353689895,-2099.450644747329,-91.39342079950555,-1178.204395248413,-1870.7619107818603,-897.3316829071044
1090.0,1129.2048061514267,-2104.348318547171,-75.8106405471121,-1183.090170288086,-1878.4131967163087,-883.7387083282471
1100.0,1128.2917343356548,-2109.170314106677,-60.22513509139116,-1187.9334242553712,-1885.9969711914061,-870.1139711380005
1110.0,1127.3380280815093,-2113.9167761991785,-44.63747373942309,-1192.7341634483337,-1893.5132480010986,-856.4580931396484
1120.0,1126.3438967740633,-2118.587853919887,-29.048221132374834,-1197.4923972473146,-1900.9620457763672,-842.7716931533813
1130.0,1125.3095510389678,-2123.183700628505,-13.457937245469541,-1202.2081380577088,-1908.3433879699708,-829.055387008667
1140.0,1124.2352026329727,-2127.704473851085,2.132822649691603,-1206.8814012908936,-1915.657302734375,-815.3097874526977
1150.0,1123.121064425612,-2132.1503352142386,17.72350801468268,-1211.5122053108216,-1922.9038228912354,-801.5355041046142
1160.0,1121.9673503349547,-2136.5214503473,33.31357303085504,-1216.1005713920592,-1930.082985824585,-787.7331434249878
1170.0,1120.7742753216855,-2140.817988830039,48.90247666889103,-1220.6465236740112,-1937.1948334808349,-773.9033086395264
1180.0,1119.5420552917833,-2145.040124097171,64.48968264991242,-1225.1500891304015,-1944.2394122314454,-760.0465997238159
1190.0,1118.27090711393,-2149.188033382414,80.07465952781727,-1229.6112975196838,-1951.2167728881836,-746.163613319397
1200.0,1116.9610484848117,-2153.2618976001218,95.65688062572771,-1234.0301813468934,-1958.1269705200195,-732.2549427261353
1210.0,1115.6126979724775,-2157.2619013040407,111.23582408888812,-1238.4067758140563,-1964.9700644836425,-718.3211778564453
1220.0,1114.2260749498773,-2161.188232617744,126.81097293832177,-1242.7411187896728,-1971.7461183624268,-704.3629051513672
1230.0,1112.8013995079002,-2165.041083110886,142.38181497751515,-1247.03325075531,-1978.455199798584,-690.380707611084
1240.0,1111.3388924662622,-2168.8206477811764,157.94784290097618,-1251.2832147789002,-1985.0973805389403,-676.3751646957397
1250.0,1109.8387753099048,-2172.527124935593,173.50855422649136,-1255.491056453705,-1991.6727362976073,-662.3468523406982
1260.0,1108.3012701733167,-2176.1607161590905,189.06345135811415,-1259.6568238754273,-1998.1813467559814,-648.2963428878784
1270.0,1106.7265997307172,-2179.721626175059,204.6120415490938,-1263.7805675811767,-2004.6232953948975,-634.2242050552368
1280.0,1105.1149872409637,-2183.210062848259,220.1538369331097,-1267.8623405342103,-2010.9986695404052,-620.1310039215087
1290.0,1103.466656462712,-2186.6262370609484,235.68835448458069,-1271.9021980552673,-2017.3075602264405,-606.0173009109498
1300.0,1101.7818316141788,-2189.970362650677,251.21511607124214,-1275.9001977996827,-2023.5500621490478,-591.883653717041
1310.0,1100.0607373478233,-2193.2426563461527,266.7336484157358,-1279.8563997077943,-2029.7262736053467,-577.730616317749
1320.0,1098.3035987141202,-2196.4433376995325,282.24348310695416,-1283.7708659744262,-2035.8362964324951,-563.5587389373779
1330.0,1096.5106411303566,-2199.572629006459,297.74415659672707,-1287.6436609916686,-2041.8802359466554,-549.3685680236816
1340.0,1094.6820903051673,-2202.630755223526,313.23521017961224,-1291.4748513183595,-2047.8582008361816,-535.1606462249756
1350.0,1092.8181722676395,-2205.617943943521,328.7161900121741,-1295.2645056495667,-2053.7703031768797,-520.9355123748779
1360.0,1090.9191132692367,-2208.534425276145,344.1866470946862,-1299.012694759369,-2059.6166582946776,-506.6937014541626
1370.0,1088.985139788437,-2211.380431806778,359.64613724474845,-1302.7194914703368,-2065.3973847351076,-492.4357446060181
1380.0,1087.016478481538,-2214.156198515549,375.09422112939376,-1306.384970603943,-2071.1126042022706,-478.16216907501223
1390.0,1085.0133561599653,-2216.8619627376106,390.53046421328685,-1310.0092089653015,-2076.7624414978027,-463.87349823760985
1400.0,1082.9759997343294,-2219.4979640585084,405.95443675772117,-1313.5922852783203,-2082.347024429321,-449.57025156402585
1410.0,1080.9046362375716,-2222.0644442923813,421.3657138398941,-1317.1342801551818,-2087.8664838256836,-435.2529446029663
1420.0,1078.799492683917,-2224.56164735701,436.7638752908273,-1320.6352760696411,-2093.320953338623,-420.92208896636964
1430.0,1076.6607961918144,-2226.98981929174,452.1485057265986,-1324.0953572998046,-2098.7105695648193,-406.5781923446655
1440.0,1074.4887738093355,-2229.349208113306,467.5191945029105,-1327.5146099052429,-2104.0354718170165,-392.22175846099856
1450.0,1072.2836525613293,-2231.640063800765,482.8755357046117,-1330.8931216812134,-2109.295802154541,-377.8532870941162
1460.0,1070.0456594186085,-2233.8626382360617,498.21712813596633,-1334.230982131958,-2114.4917053222657,-363.47327406311035
1470.0,1067.7750212403787,-2236.0171851074583,513.5435753127572,-1337.5282824134827,-2119.6233286590577,-349.08221119689944
1480.0,1065.4719647652255,-2238.103959886822,528.8544854291764,-1340.7851153182983,-2124.690822067261,-334.6805863571167
1490.0,1063.1367165671666,-2240.1232197445415,544.1494713219595,-1344.0015752296447,-2129.6943379211425,-320.2688834381104
1500.0,1060.7695030802165,-2242.075223516957,559.4281505036042,-1347.1777580833434,-2134.6340310821533,-305.8475823364258
1510.0,1058.3705504843883,-2243.9602316140363,574.6901450965137,-1350.3137613372803,-2139.510058746338,-291.41715895843504
1520.0,1055.9400847451357,-2245.778505986248,589.9350818110336,-1353.409683933258,-2144.322580444336,-276.9780852432251
1530.0,1053.4783315773318,-2247.530310072366,605.1625919626981,-1356.4656262702943,-2149.0717579956054,-262.5308291244507
1540.0,1050.9855164071723,-2249.2159087210794,620.3723114009514,-1359.4816901512147,-2153.75775541687,-248.07585456848145
1550.0,1048.4618643643241,-2250.835568158451,635.5638805382607,-1362.457978767395,-2158.38073890686,-233.6136215362549
1560.0,1045.907600251795,-2252.3895559233797,650.7369442848177,-1365.3945966529845,-2162.9408767700197,-219.14458602142335
1570.0,1043.3229484906979,-2253.878140806173,665.8911520401232,-1368.2916496620178,-2167.43833934021,-204.66920002746582
1580.0,1040.7081331577137,-2255.3015928119034,681.0261576708699,-1371.149244922638,-2171.873298980713,-190.18791159057616
1590.0,1038.0633779291884,-2256.6601831127073,696.1416194744075,-1373.9674908180236,-2176.2459300079345,-175.70116478729247
1600.0,1035.388906053895,-2257.9541839721437,711.2372001827941,-1376.7464969444275,-2180.556408630371,-161.2093997039795
1610.0,1032.6849403216174,-2259.1838686936326,726.3125668836328,-1379.4863740768433,-2184.8049128723146,-146.71305249023436
