sat1Name,LLO-5-0
sat1Smaj,3416.853
sat1Ecc,0.359146
sat1Inc,90.188
sat1RAAN,238.721
sat1ArgPer,291.43
sat1TrAnom,0
Time[EpSec],xF[km],yF[km],zF[km],xI[km],yI[km],zI[km]
0.0,965.3839337225235,-1122.5670423935153,-1613.2824675480815,-409.66875922012326,-687.225535812378,-2038.3070904312133
10.0,969.8185166892815,-1135.026240515816,-1601.8898575212768,-418.108188243866,-701.0768437194824,-2031.8859317703248
20.0,974.2071523402827,-1147.4326735715688,-1590.4224463423764,-426.52809356307984,-714.8954145965577,-2025.3698934936524
30.0,978.5496420283397,-1159.7857638545106,-1578.880775084376,-434.92808351516726,-728.6806057281494,-2018.7592870101928
40.0,982.8457915798979,-1172.084938925477,-1567.2653919081233,-443.30776844787596,-742.4317777252197,-2012.0544328155518
50.0,987.0954113957406,-1184.3296317593663,-1555.5768519768865,-451.6667607917786,-756.1482947082519,-2005.2556604766846
60.0,991.2983164685406,-1196.5192808490424,-1543.8157173022803,-460.0046751441956,-769.8295244293213,-1998.363308517456
70.0,995.4543263804613,-1208.6533302778225,-1531.9825566702798,-468.3211283340454,-783.4748383331299,-1991.3777243652344
80.0,999.5632653947341,-1220.7312298789836,-1520.077945480526,-476.6157395019531,-797.0836117706299,-1984.2992642669678
90.0,1003.6249624533023,-1232.7524353056228,-1508.1024656579937,-484.88813017654417,-810.6552240600586,-1977.12829322052
100.0,1007.6392511896742,-1244.7164081262094,-1496.0567055334216,-493.13792433547974,-824.18905859375,-1969.865184890747
110.0,1011.6059699804853,-1256.6226159370565,-1483.9412596847399,-501.3647484855652,-837.6845029907226,-1962.5103215026857
120.0,1015.5249619893732,-1268.4705324709287,-1471.7567288467806,-509.5682317314148,-851.14094921875,-1955.0640937957764
130.0,1019.3960751230796,-1280.2596376515837,-1459.5037197725085,-517.7480058441162,-864.5577936401368,-1947.526900894165
140.0,1023.2191621333452,-1291.9894177267884,-1447.1828450926519,-525.9037053222656,-877.934437210083,-1939.899150238037
150.0,1026.994080584305,-1303.6593653313694,-1434.7947232049826,-534.0349674682617,-891.2702855224609,-1932.181257484436
160.0,1030.7206928828055,-1315.2689795861459,-1422.3399781077733,-542.1414324531555,-904.5647489471436,-1924.3736463851928
170.0,1034.3988663215905,-1326.8177661799787,-1409.8192393085963,-550.2227433700562,-917.8172427368164,-1916.4767487335205
180.0,1038.0284730413237,-1338.3052374439847,-1397.233141645475,-558.2785463142395,-931.0271871032714,-1908.4910042037964
190.0,1041.609390102328,-1349.730912446682,-1384.5823251911784,-566.3084904327393,-944.1940073547363,-1900.416860305786
200.0,1045.141499443751,-1361.0943170469832,-1371.8674350805095,-574.3122279891968,-957.3171339569092,-1892.2547722244262
210.0,1048.6246879344324,-1372.3949839912834,-1359.0891213791845,-582.2894144210816,-970.3960026702881,-1884.0052027359009
220.0,1052.0588473793227,-1383.6324529929777,-1346.2480389558154,-590.2397084083557,-983.4300546417236,-1875.6686221084594
230.0,1055.4438744735778,-1394.8062707442891,-1333.3448473214,-598.1627719116211,-996.4187364349365,-1867.2455079421998
240.0,1058.7796708633762,-1405.915991054276,-1320.380210500259,-606.0582702484131,-1009.3615001983643,-1858.7363451004028
250.0,1062.066143143476,-1416.9611748658801,-1307.354796872079,-613.925872127533,-1022.2578037261962,-1850.1416255645752
260.0,1065.3032028371183,-1427.9413903373186,-1294.269279049786,-621.7652497138977,-1035.107110534668,-1841.461848335266
270.0,1068.4907663997835,-1438.856212887285,-1281.1243336955263,-629.5760786781311,-1047.9088899536132,-1832.6975192718505
280.0,1071.6287552206586,-1449.7052252635626,-1267.9206414128118,-637.3580382537842,-1060.6626172027588,-1823.849151008606
290.0,1074.7170956361444,-1460.4880175792243,-1254.65888658421,-645.1108112602234,-1073.3677734832763,-1814.9172628173828
300.0,1077.7557188868147,-1471.2041873774206,-1241.3397572053632,-652.8340841827393,-1086.0238460388184,-1805.902380455017
310.0,1080.744561134584,-1481.8533396580583,-1227.9639447908062,-660.5275471916199,-1098.6303282165527,-1796.8050360870361
320.0,1083.6835634823292,-1492.4350869644456,-1214.532144131174,-668.1908942031861,-1111.1867196197509,-1787.6257680892945
330.0,1086.572671880418,-1502.9490493541664,-1201.0450532581847,-675.8238229103089,-1123.6925260314943,-1778.365120979309
340.0,1089.4118372278285,-1513.3948545168955,-1187.5033732083402,-683.4260348281861,-1136.1472596435547,-1769.0236452560425
350.0,1092.2010152432888,-1523.7721377422793,-1173.907807917152,-690.9972353363037,-1148.5504389801026,-1759.6018972549439
360.0,1094.9401665313492,-1534.0805419995609,-1160.2590640543988,-698.5371337165833,-1160.901589050293,-1750.1004390335083
370.0,1097.6292565435442,-1544.3197179422962,-1146.5578508709025,-706.0454431800842,-1173.200241378784,-1740.519838218689
380.0,1100.268255545855,-1554.4893239436108,-1132.8048800602396,-713.5218809127807,-1185.4459340515136,-1730.8606678771973
390.0,1102.8571386178187,-1564.5890261207242,-1119.0008656292196,-720.9661680984497,-1197.6382117767334,-1721.123506401062
400.0,1105.3958856075067,-1574.6184983469927,-1105.1465236962183,-728.3780299606324,-1209.7766259307862,-1711.308937309265
410.0,1107.884481136009,-1584.5774222860732,-1091.2425723898587,-735.7571957855224,-1221.8607346191407,-1701.4175491638184
420.0,1110.3229145805435,-1594.4654874146063,-1077.289731684075,-743.1033989524841,-1233.8901027374268,-1691.4499354171753
430.0,1112.7111799878946,-1604.2823909938156,-1063.288723261107,-750.4163769607544,-1245.864301940918,-1681.4066942520142
440.0,1115.0492761286241,-1614.0278381225567,-1049.240270331817,-757.6958714485169,-1257.7829107818604,-1671.2884284439087
450.0,1117.3372064230375,-1623.7015417432378,-1035.1450975348564,-764.9416282348633,-1269.645514694214,-1661.0957452468872
460.0,1119.57497890357,-1633.3032226067135,-1021.0039307758727,-772.1533973121643,-1281.451706008911,-1650.829256225586
470.0,1121.7626062091122,-1642.8326093187393,-1006.8174970704649,-779.3309328956605,-1293.2010840301514,-1640.48957711792
480.0,1123.9001055557983,-1652.2894383250546,-992.5865243915117,-786.4739934234619,-1304.8932550659179,-1630.077327682495
490.0,1125.987498674283,-1661.6734539072206,-978.3117415756336,-793.5823415870666,-1316.5278324127198,-1619.593131591797
500.0,1128.024811804854,-1670.9844081723213,-963.9938781377386,-800.6557443313599,-1328.104436416626,-1609.0376162567138
510.0,1130.0120756465387,-1680.222061050261,-949.6336641236193,-807.6939728813171,-1339.6226944885254,-1598.4114126739503
520.0,1131.949325339974,-1689.3861802991926,-935.2318300064045,-814.6968027534485,-1351.0822411346435,-1587.7151553268432
530.0,1133.836600377636,-1698.4765414473968,-920.7891065488822,-821.6640137557984,-1362.4827179107665,-1576.949482017517
540.0,1135.6739446373565,-1707.4929278405784,-906.3062246082435,-828.5953900184631,-1373.8237735443115,-1566.1150337066651
550.0,1137.4614062919552,-1716.4351305751647,-891.7839150738153,-835.4907199783325,-1385.1050638580323,-1555.2124544143676
560.0,1139.199037783054,-1725.302948493048,-877.2229086799811,-842.3497963981629,-1396.3262518157958,-1544.2423910369873
570.0,1140.8868957775244,-1734.0961881634985,-862.6239359003227,-849.1724163703918,-1407.487007522583,-1533.2054932327271
580.0,1142.5250411197337,-1742.8146638651324,-847.9877268275093,-855.9583813285827,-1418.5870082244874,-1522.102413291931
590.0,1144.1135388177272,-1751.4581975469891,-833.3150109729094,-862.7074970283509,-1429.6259383544923,-1510.9338059387208
600.0,1145.6524579552554,-1760.0266187967889,-818.606517245917,-869.4195735664367,-1440.6034894561767,-1499.700328277588
610.0,1147.141871661176,-1768.5197648174242,-803.8629737461894,-876.0944253768921,-1451.5193602294921,-1488.4026395874023
620.0,1148.5818570842137,-1776.9374804049892,-789.0851076450888,-882.7318712272644,-1462.3732565460205,-1477.0414011993407
630.0,1149.9724953208893,-1785.2796178787898,-774.2736451035032,-889.3317342033387,-1473.1648913879394,-1465.6172763824463
640.0,1151.3138713862584,-1793.5460370980895,-759.4293111198515,-895.8938417358398,-1483.893984893799,-1454.1309301986694
650.0,1152.606074136773,-1801.7366053625992,-744.5528294061577,-902.4180255584716,-1494.5602642974854,-1442.5830293426513
660.0,1153.8491962474566,-1809.85119740631,-729.644922290324,-908.9041217193603,-1505.1634639434815,-1430.9742420425414
670.0,1155.0433341568273,-1817.8896953497824,-714.7063105810826,-915.3519705734253,-1515.7033252716064,-1419.3052379074097
680.0,1156.1885880242023,-1825.851988668402,-699.7377134554858,-921.7614167671204,-1526.1795968170165,-1407.5766878051759
690.0,1157.2850616497904,-1833.7379741047898,-684.739848361318,-928.1323092269897,-1536.592034133911,-1395.7892637252808
700.0,1158.3328624433295,-1841.5475556586005,-669.7134308858173,-934.4645011482239,-1546.9403998260498,-1383.9436386489867
710.0,1159.3321013872442,-1849.280644528178,-654.659174661707,-940.75784998703,-1557.2244635162353,-1372.0404864349366
720.0,1160.2828929619943,-1856.9371590535702,-639.5777912454079,-947.0122174339294,-1567.444001815796,-1360.0804816741943
730.0,1161.1853550724973,-1864.5170246502569,-624.4699900275688,-953.2274694099426,-1577.5987982635497,-1348.0642995681762
740.0,1162.0396090520062,-1872.0201737783505,-609.3364781232723,-959.4034760398865,-1587.6886433563232,-1335.9926158218384
750.0,1162.8457795758736,-1879.4465458837458,-594.1779602558271,-965.5401116371155,-1597.7133345031739,-1323.8661064987182
760.0,1163.6039945740113,-1886.7960873172178,-578.9951386930364,-971.637254699707,-1607.6726759338378,-1311.6854479141236
770.0,1164.314385246247,-1894.0687512891632,-563.788713118123,-977.694787853241,-1617.5664787445069,-1299.4513165130616
780.0,1164.977085951925,-1901.2644978221576,-548.5593805384603,-983.7125978736877,-1627.394560821533,-1287.1643887405396
790.0,1165.5922341924618,-1908.383293678107,-533.3078352008415,-989.6905756340027,-1637.156746826172,-1274.8253409423828
800.0,1166.159970509573,-1915.4251122759579,-518.0347685138056,-995.6286160926819,-1646.8528681030273,-1262.434849243164
810.0,1166.6804384988166,-1922.389933666562,-502.74086892497087,-1001.5266182670593,-1656.48276272583,-1249.9935894317628
820.0,1167.153784673269,-1929.2777444244552,-487.4268218681021,-1007.3844852104187,-1666.0462753601075,-1237.5022368469238
830.0,1167.580158479781,-1936.0885376292863,-472.0933096544682,-1013.2021239891052,-1675.54325730896,-1224.9614662780762
840.0,1167.9597121771249,-1942.822312737661,-456.7410114131798,-1018.9794456443786,-1684.9735663757324,-1212.3719518432617
850.0,1168.2926008649113,-1949.479075585108,-441.37060296378075,-1024.71636517334,-1694.3370669403075,-1199.7343668823241
860.0,1168.5789823192986,-1956.0588382486337,-425.9827568147887,-1030.4128015060426,-1703.6336297607422,-1187.0493838729858
870.0,1168.819017043039,-1962.5616190322392,-410.5781420168518,-1036.0686774635315,-1712.8631320648194,-1174.3176743087768
880.0,1169.0128681354363,-1968.987442363092,-395.1574241238319,-1041.6839197387694,-1722.0254574127198,-1161.5399085998536
890.0,1169.1607012498314,-1975.336338705471,-379.72126511250156,-1047.2584588508605,-1731.1204956512452,-1148.7167559661866
900.0,1169.2626845990635,-1981.608344549473,-364.2703233006366,-1052.792229133606,-1740.1481429443359,-1135.848884361267
910.0,1169.3189887979468,-1987.8035022677543,-348.8052533260322,-1058.2851686935426,-1749.1083015899658,-1122.936960372925
920.0,1169.3297868879536,-1993.9218600900504,-333.32670600400365,-1063.7372193794251,-1758.0008800811768,-1109.981649093628
930.0,1169.2952542633175,-1999.963472008543,-317.83532834085986,-1069.1483267364501,-1766.8257929992676,-1096.9836140899658
940.0,1169.2155685567384,-2005.9283976711458,-302.33176342687113,-1074.5184399909974,-1775.5829609069824,-1083.9435172424317
950.0,1169.090909701266,-2011.8167024009042,-286.81665037387285,-1079.8475120162964,-1784.2723104400634,-1070.8620187149047
960.0,1168.9214597461885,-2017.6284569962825,-271.29062430377866,-1085.1354992752076,-1792.8937740631104,-1057.73977684021
970.0,1168.7074029131804,-2023.3637377571,-255.75431623061058,-1090.382361804962,-1801.4472901763916,-1044.5774480361938
980.0,1168.448925448683,-2029.022626345674,-240.20835305346327,-1095.5880631828309,-1809.9328029327392,-1031.3756867218017
990.0,1168.1462156507087,-2034.6052097332295,-224.65335750253126,-1100.7525704689026,-1818.3502622528076,-1018.1351452636719
1000.0,1167.799463733941,-2040.1115801184146,-209.08994805305696,-1105.8758541984557,-1826.6996237182618,-1004.8564738388061
1010.0,1167.4088618693418,-2045.5418348579772,-193.5187389056259,-1110.9578883132936,-1834.9808485717774,-991.5403204116822
1020.0,1166.9746040371604,-2050.89607637274,-177.9403399668507,-1115.9986501579285,-1843.1939035644532,-978.1873306503296
1030.0,1166.4968860439787,-2056.1744120709823,-162.35535675348865,-1120.9981204032897,-1851.3387609710694,-964.7981478271485
1040.0,1165.9759054067292,-2061.3769542763216,-146.76439038256626,-1125.9562830467223,-1859.4153984680177,-951.3734127578736
1050.0,1165.4118613951102,-2066.503820172256,-131.16803750469862,-1130.8731253471374,-1867.4237991638183,-937.9137637405396
1060.0,1164.8049548595727,-2071.555131662076,-115.56689032967948,-1135.7486377983093,-1875.363951385498,-924.4198364944458
1070.0,1164.1553882588503,-2076.531015345509,-99.96153651250235,-1140.5828140830993,-1883.235848739624,-910.8922640609741
1080.0,1163.4633656282174,-2081.431602429717,-84.3525591479966,-1145.375651035309,-1891.0394900360106,-897.3316767654419
1090.0,1162.729092427386,-2086.257028619212,-68.74053678617196,-1150.1271486053467,-1898.774879119873,-883.7387021636963
1100.0,1161.9527755927772,-2091.0074340857946,-53.12604332513676,-1154.8373098220825,-1906.4420249328614,-870.1139649505615
1110.0,1161.1346234473008,-2095.6829633433217,-37.50964802948129,-1159.5061407318115,-1914.0409413757325,-856.4580869216919
1120.0,1160.2748456352213,-2100.283765202345,-21.891915504340897,-1164.133650390625,-1921.5716472473146,-842.771686920166
1130.0,1159.373653091247,-2104.8099926731556,-6.273405629596673,-1168.7198507995606,-1929.0341661987304,-829.055380744934
1140.0,1158.4312580065653,-2109.2618029033665,9.345326396294986,-1173.2647568740845,-1936.4285266571044,-815.3097811660766
1150.0,1157.4478737442291,-2113.6393570782234,24.963730146130665,-1177.7683863983154,-1943.7547617492676,-801.535497795105
1160.0,1156.423714820823,-2117.9428203563716,40.58125993283524,-1182.2307599868775,-1951.0129092407226,-787.7331370925904
1170.0,1155.3589968420333,-2122.17236179942,56.19737486311887,-1186.6519010543823,-1958.2030114746094,-773.9033022842407
1180.0,1154.253936489238,-2126.3281542964373,71.81153883998073,-1191.0318357582091,-1965.3251153259278,-760.0465933380127
1190.0,1153.1087514105036,-2130.4103744447902,87.42322054603777,-1195.3705929603577,-1972.3792720489503,-746.163606918335
1200.0,1151.9236602343085,-2134.41920253886,103.03189353806688,-1199.6682042045593,-1979.365537322998,-732.2549363021851
1210.0,1150.6988825125734,-2138.354822451258,118.63703616507829,-1203.9247036514282,-1986.2839711151123,-718.3211714096069
1220.0,1149.434638642341,-2142.217421555041,134.23813165722962,-1208.140128047943,-1993.1346376190186,-704.3628986816407
1230.0,1148.1311498631337,-2146.007190683209,149.83466807255732,-1212.3145167007447,-1999.9176052093505,-690.3807011184692
1240.0,1146.7886381964008,-2149.7243240178655,165.42613835106417,-1216.4479114074707,-2006.6329463653565,-676.3751581878662
1250.0,1145.4073263861048,-2153.369019022343,181.012040293516,-1220.5403564376832,-2013.2807375793457,-662.3468458099366
1260.0,1143.9874379095652,-2156.9414764006337,196.59187658163893,-1224.5918984870912,-2019.8610593566896,-648.2963363342285
1270.0,1142.5291968599975,-2160.441899974732,212.16515477547398,-1228.6025866355897,-2026.3739960632324,-634.2241984786988
1280.0,1141.0328279622381,-2163.870496638654,227.7313873066773,-1232.5724723052979,-2032.819635910034,-620.1309973297119
1290.0,1139.4985565319694,-2167.2274762965185,243.29009150963137,-1236.501609222412,-2039.1980709075929,-606.0172942886353
1300.0,1137.9266083956252,-2170.5130517645875,258.8407895613129,-1240.3900533828735,-2045.5093967285156,-591.8836470794678
1310.0,1136.3172098777873,-2173.7274387166603,274.38300856495147,-1244.2378630065919,-2051.7537127075198,-577.7306096572876
1320.0,1134.670587777232,-2176.870855603685,289.9162804717731,-1248.045098487854,-2057.931121749878,-563.5587322540283
1330.0,1132.9869693019398,-2179.9435236060017,305.44014210685435,-1251.8118223838806,-2064.041730270386,-549.3685613250732
1340.0,1131.266582047189,-2182.9456665340876,320.95413517958525,-1255.5380993423462,-2070.0856481323244,-535.1606395111083
1350.0,1129.5096539471535,-2185.877510778885,336.4578062543438,-1259.2239960899353,-2076.062988571167,-520.9355056381225
1360.0,1127.7164132301075,-2188.739285230456,351.9507067343919,-1262.8695813789368,-2081.973868118286,-506.69369470214843
1370.0,1125.88708843199,-2191.5312212315625,367.4323929033789,-1266.4749259490966,-2087.818406600952,-492.4357378234863
1380.0,1124.0219082957162,-2194.2535524855375,382.9024258382483,-1270.0401024932862,-2093.596726989746,-478.1621622772217
1390.0,1122.121101789634,-2196.9065150122547,398.3603714777101,-1273.5651856193542,-2099.3089554138182,-463.87349142456054
1400.0,1120.184898032517,-2199.4903470648164,413.805800553753,-1277.0502518119813,-2104.9552210388183,-449.5702447357178
1410.0,1118.2135263036164,-2202.0052890856737,429.2382886260158,-1280.4953793907166,-2110.5356560668947,-435.25293775177
1420.0,1116.2072159611985,-2204.451583614579,444.6574160146921,-1283.9006484794618,-2116.0503955993654,-420.9220820999146
1430.0,1114.166196458667,-2206.8294752529323,460.0627678406406,-1287.2661409606933,-2121.4995776519777,-406.5781854553223
1440.0,1112.090697261079,-2209.1392105771756,475.4539339584462,-1290.5919404525757,-2126.883343017578,-392.2217515563965
1450.0,1109.9809478797245,-2211.3810381057096,490.83050899514086,-1293.8781322555542,-2132.2018352966306,-377.85328017425536
1460.0,1107.8371777746397,-2213.5552082081417,506.19209227752447,-1297.1248033332824,-2137.455200744629,-363.4732671279907
1470.0,1105.6596163644188,-2215.6619730498164,521.5382878732746,-1300.3320422554016,-2142.643588272095,-349.0822042388916
1480.0,1103.4484930150911,-2217.7015865733088,536.8687045168418,-1303.4999391860963,-2147.7671493988037,-334.6805793914795
1490.0,1101.2040369358735,-2219.674304369495,552.1829556336183,-1306.6285858345032,-2152.826038116455,-320.268876449585
1500.0,1098.9264772371237,-2221.5803836683444,567.4806592744378,-1309.718075416565,-2157.8204109039307,-305.8475753326416
1510.0,1096.6160428541978,-2223.4200832857,582.7614381625054,-1312.7685026397705,-2162.75042666626,-291.4171519393921
1520.0,1094.2729625387765,-2225.1936635345724,598.0249196007971,-1315.7799636421203,-2167.6162466430665,-276.97807820892336
1530.0,1091.8974648147669,-2226.9013861859057,613.2707354896233,-1318.7525559806825,-2172.418034362793,-262.53082208251953
1540.0,1089.4897779763887,-2228.543514411511,628.4985223138779,-1321.6863785781861,-2177.1559556121824,-248.07584750366212
1550.0,1087.0501300399862,-2230.1203127376007,643.7079210727109,-1324.581531715393,-2181.8301783447264,-233.61361445617675
1560.0,1084.5787487442342,-2231.632046983527,658.8985773077723,-1327.438116973877,-2186.440872665405,-219.14457892608644
1570.0,1082.0758615048067,-2233.0789842119507,674.0701410596205,-1330.2562372169496,-2190.9882107543945,-204.66919291687012
1580.0,1079.5416953873064,-2234.4613926566826,689.2222668236495,-1333.035996547699,-2195.4723667907715,-190.18790446472167
1590.0,1076.9764771115058,-2235.7795417121024,704.3546135426405,-1335.777500289917,-2199.893516952515,-175.7011576461792
1600.0,1074.3804330240378,-2237.0337018573764,719.4668446108143,-1338.4808549461366,-2204.2518393554687,-161.20939254760742
1610.0,1071.7537890293256,-2238.2241445909617,734.5586277703229,-1341.146168170929,-2208.5475139312744,-146.7130453262329
